Time(s),Amplitude(mV)
0.001,-0.011334815
0.002,-0.011305941
0.003,-0.010180076
0.004,-0.008864535
0.005,-0.009031561
0.006,-0.009002686
0.007,-0.009017124
0.008,-0.008878974
0.009,-0.009046
0.01,-0.011044082
0.011,-0.011553364
0.012,-0.011320381
0.013,-0.011458531
0.014,-0.013332902
0.015,-0.013885498
0.016,-0.013994768
0.017,-0.01362364
0.018,-0.013885498
0.019,-0.013885498
0.02,-0.014038086
0.021,-0.012745183
0.022,-0.011429652
0.023,-0.011167797
0.024,-0.010194508
0.025,-0.009031567
0.026,-0.009155273
0.027,-0.009140833
0.028,-0.009278979
0.029,-0.00798607
0.03,-0.007701601
0.031,-0.008835656
0.032,-0.009002686
0.033,-0.009140832
0.034,-0.008835656
0.035,-0.009169715
0.036,-0.009126389
0.037,-0.009126389
0.038,-0.008973801
0.039,-0.009155273
0.04,-0.009278976
0.041,-0.009140831
0.042,-0.009002686
0.043,-0.009002686
0.044,-0.008850098
0.045,-0.009017129
0.046,-0.008711953
0.047,-0.008988242
0.048,-0.009293417
0.049,-0.009140829
0.05,-0.009126385
0.051,-0.009155273
0.052,-0.009002686
0.053,-0.008893431
0.054,-0.009126384
0.055,-0.008878987
0.056,-0.009002686
0.057,-0.009140828
0.058,-0.009155273
0.059,-0.008835652
0.06,-0.00898824
0.061,-0.007905679
0.062,-0.006837563
0.063,-0.006394245
0.064,-0.00627055
0.065,-0.006699421
0.066,-0.006503494
0.067,-0.004148766
0.068,-0.003676556
0.069,-0.004119873
0.07,-0.004090979
0.071,-0.004148767
0.072,-0.004258014
0.073,-0.004105426
0.074,-0.004134321
0.075,-0.005536507
0.076,-0.006575727
0.077,-0.006437587
0.078,-0.006852007
0.079,-0.006546831
0.08,-0.00668497
0.081,-0.006823109
0.082,-0.007491255
0.083,-0.006699418
0.084,-0.006408691
0.085,-0.006837557
0.086,-0.006394242
0.087,-0.006423141
0.088,-0.006713867
0.089,-0.006590179
0.09,-0.006394242
0.091,-0.004381699
0.092,-0.004119873
0.093,-0.003981735
0.094,-0.004272461
0.095,-0.00424356
0.096,-0.003981736
0.097,-0.004119873
0.098,-0.004090971
0.099,-0.003705463
0.1,-0.004134324
0.101,-0.004105422
0.102,-0.004119873
0.103,-0.003981737
0.104,-0.004243557
0.105,-0.004214653
0.106,-0.004119873
0.107,-0.003981737
0.108,-0.004119873
0.109,-0.004119873
0.11,-0.004243555
0.111,-0.004272461
0.112,-0.003843603
0.113,-0.004258008
0.114,-0.004119873
0.115,-0.004134327
0.116,-0.004090966
0.117,-0.004119873
0.118,-0.004119873
0.119,-0.004134327
0.12,-0.004105419
0.121,-0.002107322
0.122,-0.001831055
0.123,-0.001554788
0.124,-0.001678467
0.125,-0.002971444
0.126,-0.003829152
0.127,-0.004243551
0.128,-0.004381683
0.129,-0.004119873
0.13,-0.004134329
0.131,-0.004090962
0.132,-0.003981741
0.133,-0.003037302
0.134,-0.001678467
0.135,-0.001940274
0.136,-0.001387747
0.137,-0.001649554
0.138,-0.001692924
0.139,-0.001831055
0.14,-0.001525879
0.141,-0.001678467
0.142,-0.001787683
0.143,-0.001707382
0.144,-0.00385807
0.145,-0.004119873
0.146,-0.004396133
0.147,-0.005093233
0.148,-0.006575738
0.149,-0.006590196
0.15,-0.008516005
0.151,-0.009111898
0.152,-0.008726427
0.153,-0.008740887
0.154,-0.009002686
0.155,-0.009017145
0.156,-0.008014861
0.157,-0.006423151
0.158,-0.006270563
0.159,-0.006575739
0.16,-0.006575739
0.161,-0.006699407
0.162,-0.007825363
0.163,-0.009155273
0.164,-0.008864558
0.165,-0.010404898
0.166,-0.011334886
0.167,-0.011705885
0.168,-0.012664795
0.169,-0.011582218
0.17,-0.011167839
0.171,-0.011320427
0.172,-0.010303668
0.173,-0.0089593
0.174,-0.006532355
0.175,-0.004352738
0.176,-0.001678467
0.177,0.001474528
0.178,0.004526286
0.179,0.009242049
0.18,0.011683456
0.181,0.015178516
0.182,0.017758048
0.183,0.020003477
0.184,0.021420158
0.185,0.022735596
0.186,0.022750059
0.187,0.024181206
0.188,0.025038878
0.189,0.025358518
0.19,0.02532959
0.191,0.025191466
0.192,0.025286196
0.193,0.022917113
0.194,0.022721131
0.195,0.022750061
0.196,0.023011841
0.197,0.022888184
0.198,0.022968445
0.199,0.020737488
0.2,0.020432312
0.201,0.019030089
0.202,0.018143493
0.203,0.017003047
0.204,0.015396911
0.205,0.013108092
0.206,0.012941038
0.207,0.010819274
0.208,0.010499631
0.209,0.008530455
0.21,0.008072691
0.211,0.006212702
0.212,0.004396114
0.213,0.003466119
0.214,0.002063892
0.215,0.00103918
0.216,-0.000224928
0.217,-0.001525879
0.218,-0.001554815
0.219,-0.003814697
0.22,-0.004177747
0.221,-0.006117984
0.222,-0.007425501
0.223,-0.008879036
0.224,-0.010877148
0.225,-0.012460904
0.226,-0.01362373
0.227,-0.016159847
0.228,-0.016326904
0.229,-0.016217726
0.23,-0.016065138
0.231,-0.016326904
0.232,-0.016465022
0.233,-0.016479492
0.234,-0.016341375
0.235,-0.016312434
0.236,-0.015171964
0.237,-0.013623735
0.238,-0.01414726
0.239,-0.013761853
0.24,-0.013871027
0.241,-0.013965728
0.242,-0.011320447
0.243,-0.01142962
0.244,-0.010456205
0.245,-0.008988213
0.246,-0.008973741
0.247,-0.006699395
0.248,-0.00667045
0.249,-0.006408691
0.25,-0.006590225
0.251,-0.006408691
0.252,-0.006713867
0.253,-0.006546806
0.254,-0.006713867
0.255,-0.006851982
0.256,-0.006423165
0.257,-0.006684919
0.258,-0.006684919
0.259,-0.006408691
0.26,-0.006561279
0.261,-0.006684918
0.262,-0.00653233
0.263,-0.006546805
0.264,-0.006699392
0.265,-0.006699392
0.266,-0.006699392
0.267,-0.006408691
0.268,-0.006437642
0.269,-0.006561279
0.27,-0.006561279
0.271,-0.006684915
0.272,-0.00525372
0.273,-0.003938333
0.274,-0.004396096
0.275,-0.004134349
0.276,-0.004119873
0.277,-0.004076443
0.278,-0.001802101
0.279,-0.00166399
0.28,-0.001416722
0.281,-0.001525879
0.282,0.000624829
0.283,0.001053638
0.284,0.000762939
0.285,0.000915527
0.286,0.001053637
0.287,0.000610352
0.288,0.00062483
0.289,0.001039158
0.29,0.000748461
0.291,-0.000406527
0.292,-0.001569316
0.293,-0.003705546
0.294,-0.007425573
0.295,-0.012046648
0.296,-0.017220159
0.297,-0.023548661
0.298,-0.032732896
0.299,-0.042556443
0.3,-0.055846073
0.301,-0.070581394
0.302,-0.088019858
0.303,-0.105720058
0.304,-0.123834579
0.305,-0.140771839
0.306,-0.156096335
0.307,-0.168441476
0.308,-0.177466422
0.309,-0.182233385
0.31,-0.182495117
0.311,-0.181449255
0.312,-0.174830048
0.313,-0.164795978
0.314,-0.150547373
0.315,-0.132607693
0.316,-0.112335747
0.317,-0.086766668
0.318,-0.057731515
0.319,-0.02486718
0.32,0.009246824
0.321,0.046688798
0.322,0.089333245
0.323,0.134448065
0.324,0.182738267
0.325,0.231747958
0.326,0.282393683
0.327,0.298505366
0.328,0.310665912
0.329,0.356383344
0.33,0.405487687
0.331,0.453160802
0.332,0.497658537
0.333,0.541480241
0.334,0.585440049
0.335,0.628106728
0.336,0.67076567
0.337,0.713555966
0.338,0.755169014
0.339,0.794689286
0.34,0.834028
0.341,0.872894463
0.342,0.908651224
0.343,0.939801373
0.344,0.96420868
0.345,0.978647548
0.346,0.978357817
0.347,0.963499796
0.348,0.935053727
0.349,0.896798568
0.35,0.84825435
0.351,0.793759201
0.352,0.732164855
0.353,0.66867379
0.354,0.603337183
0.355,0.538988542
0.356,0.475417329
0.357,0.415355639
0.358,0.356790852
0.359,0.301459388
0.36,0.247377606
0.361,0.195788399
0.362,0.146880119
0.363,0.100580323
0.364,0.056220704
0.365,0.015704762
0.366,-0.023147201
0.367,-0.059085504
0.368,-0.092415321
0.369,-0.122112007
0.37,-0.147812427
0.371,-0.171071439
0.372,-0.190864398
0.373,-0.207409539
0.374,-0.220779315
0.375,-0.233233561
0.376,-0.242025698
0.377,-0.249430051
0.378,-0.252176634
0.379,-0.253572092
0.38,-0.253710188
0.381,-0.251297764
0.382,-0.247592179
0.383,-0.244816613
0.384,-0.240529659
0.385,-0.23677293
0.386,-0.232900262
0.387,-0.229710408
0.388,-0.226854715
0.389,-0.223345194
0.39,-0.220736706
0.391,-0.218266313
0.392,-0.216950994
0.393,-0.214618695
0.394,-0.212082674
0.395,-0.210789503
0.396,-0.209641268
0.397,-0.208515177
0.398,-0.207061768
0.399,-0.206088263
0.4,-0.204467773
0.401,-0.203189092
0.402,-0.202607729
0.403,-0.201067355
0.404,-0.199861147
0.405,-0.197601318
0.406,-0.197405245
0.407,-0.195007324
0.408,-0.194702148
0.409,-0.19270401
0.41,-0.19125824
0.411,-0.190400696
0.412,-0.18878784
0.413,-0.187777708
0.414,-0.185503386
0.415,-0.183824919
0.416,-0.181521603
0.417,-0.180191802
0.418,-0.178026578
0.419,-0.17578125
0.42,-0.174030297
0.421,-0.172853085
0.422,-0.170578764
0.423,-0.169314568
0.424,-0.168079366
0.425,-0.165848539
0.426,-0.164446252
0.427,-0.162934871
0.428,-0.160551458
0.429,-0.159439847
0.43,-0.158248141
0.431,-0.155944824
0.432,-0.155777737
0.433,-0.153794095
0.434,-0.152086629
0.435,-0.149659722
0.436,-0.148577107
0.437,-0.146288288
0.438,-0.143679794
0.439,-0.141267387
0.44,-0.138949568
0.441,-0.136231986
0.442,-0.133790579
0.443,-0.131349173
0.444,-0.128922267
0.445,-0.126618948
0.446,-0.125187652
0.447,-0.12303692
0.448,-0.121474462
0.449,-0.12033384
0.45,-0.118865967
0.451,-0.119127638
0.452,-0.116729736
0.453,-0.11668623
0.454,-0.114440918
0.455,-0.113692481
0.456,-0.11226118
0.457,-0.110568211
0.458,-0.109681688
0.459,-0.107131202
0.46,-0.105547311
0.461,-0.104370117
0.462,-0.103229486
0.463,-0.102052292
0.464,-0.100788078
0.465,-0.0996689
0.466,-0.098332166
0.467,-0.097060402
0.468,-0.096086859
0.469,-0.094728072
0.47,-0.092315674
0.471,-0.092119572
0.472,-0.089845258
0.473,-0.089401999
0.474,-0.087418356
0.475,-0.087403851
0.476,-0.086430302
0.477,-0.084838867
0.478,-0.085086021
0.479,-0.082688131
0.48,-0.081285828
0.481,-0.080137655
0.482,-0.078786396
0.483,-0.077100404
0.484,-0.076221413
0.485,-0.075087749
0.486,-0.074906148
0.487,-0.072893491
0.488,-0.07275541
0.489,-0.071505692
0.49,-0.07019043
0.491,-0.068911697
0.492,-0.067690993
0.493,-0.065612793
0.494,-0.064290535
0.495,-0.062851703
0.496,-0.061849127
0.497,-0.060148645
0.498,-0.059298656
0.499,-0.058150495
0.5,-0.057692731
0.501,-0.055832659
0.502,-0.055483956
0.503,-0.053100586
0.504,-0.052933489
0.505,-0.051988942
0.506,-0.050521101
0.507,-0.050521102
0.508,-0.049380437
0.509,-0.048188753
0.51,-0.048203263
0.511,-0.047048086
0.512,-0.04563829
0.513,-0.04600899
0.514,-0.043473038
0.515,-0.043291428
0.516,-0.04119873
0.517,-0.039752884
0.518,-0.038590225
0.519,-0.038437637
0.52,-0.037325987
0.521,-0.035843643
0.522,-0.035662031
0.523,-0.033845488
0.524,-0.033678387
0.525,-0.031266005
0.526,-0.030960829
0.527,-0.028853624
0.528,-0.028243273
0.529,-0.028672011
0.53,-0.027378742
0.531,-0.026121556
0.532,-0.026201577
0.533,-0.025968968
0.534,-0.026078016
0.535,-0.026259631
0.536,-0.026063502
0.537,-0.026107043
0.538,-0.025939941
0.539,-0.02437052
0.54,-0.023665638
0.541,-0.023498535
0.542,-0.02134779
0.543,-0.02131876
0.544,-0.018935413
0.545,-0.01850668
0.546,-0.017656649
0.547,-0.016188832
0.548,-0.016450461
0.549,-0.014038086
0.55,-0.014038086
0.551,-0.014052602
0.552,-0.01271577
0.553,-0.011429575
0.554,-0.011582163
0.555,-0.010288877
0.556,-0.009017202
0.557,-0.00916979
0.558,-0.007861985
0.559,-0.006684833
0.56,-0.006452243
0.561,-0.006532244
0.562,-0.005420576
0.563,-0.004090838
0.564,-0.004119873
0.565,-0.002855616
0.566,-0.001663949
0.567,-0.001554916
0.568,-0.000247102
0.569,0.000791977
0.57,0.002027199
0.571,0.003247902
0.572,0.005369614
0.573,0.007062601
0.574,0.008087158
0.575,0.009198832
0.576,0.010710192
0.577,0.012802863
0.578,0.014096166
0.579,0.015273309
0.58,0.01794729
0.581,0.018310547
0.582,0.020475818
0.583,0.020337751
0.584,0.022583008
0.585,0.023178838
0.586,0.025024414
0.587,0.025496699
0.588,0.027327754
0.589,0.027800039
0.59,0.029783682
0.591,0.031186017
0.592,0.032697374
0.593,0.034681017
0.594,0.036097875
0.595,0.037551143
0.596,0.038662826
0.597,0.039549309
0.598,0.040508405
0.599,0.041838128
0.6,0.043225942
0.601,0.044403076
0.602,0.045543808
0.603,0.047026117
0.604,0.048275868
0.605,0.049591064
0.606,0.051422119
0.607,0.052868031
0.608,0.054350337
0.609,0.056377553
0.61,0.05891345
0.611,0.060054189
0.612,0.061507445
0.613,0.062786248
0.614,0.064115964
0.615,0.065351193
0.616,0.066651857
0.617,0.066375732
0.618,0.06750195
0.619,0.068940675
0.62,0.070110472
0.621,0.071287597
0.622,0.071607299
0.623,0.073576416
0.624,0.073852539
0.625,0.074993288
0.626,0.076446533
0.627,0.076613648
0.628,0.078582764
0.629,0.078597291
0.63,0.079738043
0.631,0.080900637
0.632,0.08116223
0.633,0.080777105
0.634,0.081038698
0.635,0.081329346
0.636,0.081053226
0.637,0.081038698
0.638,0.081038698
0.639,0.081053227
0.64,0.08090064
0.641,0.08127123
0.642,0.079178586
0.643,0.07887341
0.644,0.07747106
0.645,0.076417474
0.646,0.074143185
0.647,0.073699951
0.648,0.071411133
0.649,0.070284897
0.65,0.067690902
0.651,0.066361202
0.652,0.064472025
0.653,0.062030618
0.654,0.059327628
0.655,0.055774513
0.656,0.053042462
0.657,0.05072458
0.658,0.047229589
0.659,0.043443954
0.66,0.040791833
0.661,0.03778367
0.662,0.035313199
0.663,0.031803676
0.664,0.02893357
0.665,0.024479456
0.666,0.021870928
0.667,0.016988115
0.668,0.012272422
0.669,0.009387784
0.67,0.004643026
0.671,0.001053582
0.672,-0.002528607
0.673,-0.007534941
0.674,-0.010281523
0.675,-0.014764708
0.676,-0.018245163
0.677,-0.022408639
0.678,-0.025816422
0.679,-0.02941315
0.68,-0.033046192
0.681,-0.036875425
0.682,-0.040661053
0.683,-0.044076127
0.684,-0.047941668
0.685,-0.051647383
0.686,-0.054364895
0.687,-0.05666825
0.688,-0.059095121
0.689,-0.061674579
0.69,-0.064007006
0.691,-0.066586465
0.692,-0.067792632
0.693,-0.069914327
0.694,-0.072188609
0.695,-0.073758098
0.696,-0.074949728
0.697,-0.077085959
0.698,-0.0787935
0.699,-0.079970592
0.7,-0.08212136
0.701,-0.082579124
0.702,-0.084548229
0.703,-0.084715355
0.704,-0.086241234
0.705,-0.087265735
0.706,-0.087679884
0.707,-0.087403784
0.708,-0.087418323
0.709,-0.087142224
0.71,-0.087156763
0.711,-0.087418322
0.712,-0.087708959
0.713,-0.087294813
0.714,-0.086139461
0.715,-0.084809788
0.716,-0.084700819
0.717,-0.084809787
0.718,-0.084715359
0.719,-0.084824327
0.72,-0.084824327
0.721,-0.082811603
0.722,-0.082259414
0.723,-0.08199786
0.724,-0.082259414
0.725,-0.081118594
0.726,-0.079818008
0.727,-0.079818008
0.728,-0.078982362
0.729,-0.077514648
0.73,-0.077638153
0.731,-0.075363876
0.732,-0.074811692
0.733,-0.074208508
0.734,-0.072355745
0.735,-0.071338421
0.736,-0.070343018
0.737,-0.06915856
0.738,-0.067749023
0.739,-0.06773448
0.74,-0.065489291
0.741,-0.065155029
0.742,-0.063033342
0.743,-0.06282258
0.744,-0.060395717
0.745,-0.060577393
0.746,-0.059131381
0.747,-0.058121442
0.748,-0.057663678
0.749,-0.055941578
0.75,-0.05578899
0.751,-0.052962543
0.752,-0.053238629
0.753,-0.051850793
0.754,-0.050797222
0.755,-0.050739041
0.756,-0.048370361
0.757,-0.048326725
0.758,-0.047200426
0.759,-0.045500283
0.76,-0.044620976
0.761,-0.043349507
0.762,-0.043305868
0.763,-0.041169638
0.764,-0.040879008
0.765,-0.040632019
0.766,-0.039709064
0.767,-0.038146973
0.768,-0.038103331
0.769,-0.038452148
0.77,-0.038590189
0.771,-0.038176068
0.772,-0.038176068
0.773,-0.038437601
0.774,-0.038299561
0.775,-0.038466697
0.776,-0.037216897
0.777,-0.035872703
0.778,-0.035981645
0.779,-0.035843606
0.78,-0.034993373
0.781,-0.03326416
0.782,-0.033402199
0.783,-0.033235061
0.784,-0.030989891
0.785,-0.03111338
0.786,-0.030960792
0.787,-0.029878127
0.788,-0.028824561
0.789,-0.028533936
0.79,-0.028395898
0.791,-0.027545656
0.792,-0.025925391
0.793,-0.025954492
0.794,-0.025983594
0.795,-0.025939941
0.796,-0.024123438
0.797,-0.023818262
0.798,-0.023636572
0.799,-0.023665675
0.8,-0.023651123
0.801,-0.023636571
0.802,-0.023665675
0.803,-0.022510247
0.804,-0.021238821
0.805,-0.021376857
0.806,-0.021180612
0.807,-0.019487592
0.808,-0.018935451
0.809,-0.019073486
0.81,-0.017641982
0.811,-0.016602973
0.812,-0.016450385
0.813,-0.016326904
0.814,-0.016036282
0.815,-0.015062539
0.816,-0.013885498
0.817,-0.013623985
0.818,-0.013979869
0.819,-0.013885498
0.82,-0.013900053
0.821,-0.013900053
0.822,-0.01376202
0.823,-0.013885498
0.824,-0.014161563
0.825,-0.013762021
0.826,-0.013856387
0.827,-0.014176118
0.828,-0.014008974
0.829,-0.014176118
0.83,-0.013762022
0.831,-0.013747466
0.832,-0.013870942
0.833,-0.014023529
0.834,-0.012577455
0.835,-0.011306061
0.836,-0.011458649
0.837,-0.011320618
0.838,-0.012679352
0.839,-0.01249765
0.84,-0.01159668
0.841,-0.01173471
0.842,-0.011306062
0.843,-0.011153474
0.844,-0.011553005
0.845,-0.011182591
0.846,-0.011429533
0.847,-0.011567563
0.848,-0.011400416
0.849,-0.012570442
0.85,-0.014023527
0.851,-0.014023527
0.852,-0.013762029
0.853,-0.014161555
0.854,-0.013776589
0.855,-0.013870938
0.856,-0.013609442
0.857,-0.01376203
0.858,-0.01373291
0.859,-0.013885498
0.86,-0.013747471
0.861,-0.013812695
0.862,-0.011582119
0.863,-0.01101545
0.864,-0.011444092
0.865,-0.011458653
0.866,-0.011414969
0.867,-0.011444092
0.868,-0.011320627
0.869,-0.011291504
0.87,-0.011444092
0.871,-0.009416763
0.872,-0.008879222
0.873,-0.008988123
0.874,-0.008988123
0.875,-0.00886466
0.876,-0.009293299
0.877,-0.009002686
0.878,-0.010267078
0.879,-0.01132063
0.88,-0.011291504
0.881,-0.011720141
0.882,-0.011320631
0.883,-0.01059377
0.884,-0.00914071
0.885,-0.008988122
0.886,-0.009126145
0.887,-0.008712074
0.888,-0.009155273
0.889,-0.008850098
0.89,-0.010281647
0.891,-0.011720138
0.892,-0.011473222
0.893,-0.011582115
0.894,-0.011168047
0.895,-0.011306069
0.896,-0.011567549
0.897,-0.011291504
0.898,-0.01170557
0.899,-0.01159668
0.9,-0.011582114
0.901,-0.011567547
0.902,-0.011458658
0.903,-0.01130607
0.904,-0.011429525
0.905,-0.011473225
0.906,-0.010303142
0.907,-0.008988118
0.908,-0.00926416
0.909,-0.009155273
0.91,-0.008879233
0.911,-0.009002686
0.912,-0.009293293
0.913,-0.009140705
0.914,-0.009155273
0.915,-0.011291504
0.916,-0.011400387
0.917,-0.011705562
0.918,-0.01159668
0.919,-0.011473229
0.92,-0.011444092
0.921,-0.01159668
0.922,-0.01159668
0.923,-0.011444092
0.924,-0.011458661
0.925,-0.011291504
0.926,-0.011429522
0.927,-0.010484854
0.928,-0.008864668
0.929,-0.009278721
0.93,-0.008864668
0.931,-0.009017256
0.932,-0.008850098
0.933,-0.00773827
0.934,-0.006423262
0.935,-0.006546708
0.936,-0.006423263
0.937,-0.00614723
0.938,-0.004243318
0.939,-0.004011
0.94,-0.004272461
0.941,-0.004090729
0.942,-0.003967285
0.943,-0.004076156
0.944,-0.004257888
0.945,-0.003981858
0.946,-0.00382927
0.947,-0.004228742
0.948,-0.004076154
0.949,-0.001816482
0.95,-0.001816481
0.951,-0.001663893
0.952,-0.001387865
0.953,-0.001649319
0.954,-0.001678467
0.955,-0.001417013
0.956,-0.001831055
0.957,-0.001540453
0.958,-0.002107082
0.959,-0.001969068
0.96,-0.001525879
0.961,-0.001663892
0.962,-0.001525879
0.963,-0.001525879
0.964,-0.001678467
0.965,-0.001402442
0.966,-0.001373291
0.967,0.000748364
0.968,-0.000348903
0.969,-0.001249855
0.97,-0.001649314
0.971,-0.001678467
0.972,-0.001831055
0.973,-0.001402444
0.974,-0.001816478
0.975,-0.001816478
0.976,-0.001678467
0.977,-0.00166389
0.978,-0.001525879
0.979,-0.001402446
0.98,-0.001678467
0.981,-0.001801899
0.982,-0.001540457
0.983,-0.001649311
0.984,-0.001845633
0.985,-0.001540457
0.986,-0.000690047
0.987,0.000610352
0.988,0.000900949
0.989,0.00062493
0.99,0.000777518
0.991,0.000777519
0.992,0.000624931
0.993,0.000777519
0.994,0.000595772
0.995,0.000777519
0.996,0.000900947
0.997,0.000748359
0.998,0.000930108
0.999,0.0007921
1,0.000900947
1.001,0.000915527
1.002,-0.00037808
1.003,-0.001663886
1.004,-0.001663886
1.005,-0.00154046
1.006,-0.001816473
1.007,-0.001816473
1.008,-0.000813456
1.009,0.000915527
1.01,0.000900945
1.011,0.000748357
1.012,0.000762939
1.013,0.000886363
1.014,0.000762939
1.015,0.001009785
1.016,0.000900945
1.017,0.000915527
1.018,0.000748356
1.019,0.000900944
1.02,0.000624935
1.021,0.000900944
1.022,0.000610352
1.023,0.000748356
1.024,0.000900943
1.025,0.000733771
1.026,0.000624936
1.027,0.000915527
1.028,0.000762939
1.029,0.000777524
1.03,0.000777524
1.031,0.000748355
1.032,0.000900942
1.033,0.001765978
1.034,0.003204346
1.035,0.003051758
1.036,0.003175174
1.037,0.003204346
1.038,0.002913756
1.039,0.003248104
1.04,0.005355162
1.041,0.005631166
1.042,0.005645752
1.043,0.005827513
1.044,0.007811156
1.045,0.008130919
1.046,0.008181398
1.047,0.006059754
1.048,0.00579834
1.049,0.005493164
1.05,0.005601989
1.051,0.003618346
1.052,0.003356934
1.053,0.00317517
1.054,0.001053527
1.055,0.00102435
1.056,0.000762939
1.057,0.001765999
1.058,0.002928348
1.059,0.003327756
1.06,0.003327755
1.061,0.003218935
1.062,0.003204346
1.063,0.002790351
1.064,0.003080937
1.065,0.003233525
1.066,0.00295753
1.067,0.003189756
1.068,0.003327753
1.069,0.003204346
1.07,0.003175165
1.071,0.003175164
1.072,0.003080939
1.073,0.00348034
1.074,0.00308094
1.075,0.003204346
1.076,0.002928353
1.077,0.003051758
1.078,0.003204346
1.079,0.003189754
1.08,0.00332775
1.081,0.003218938
1.082,0.005493164
1.083,0.005674937
1.084,0.005631159
1.085,0.004504673
1.086,0.003342341
1.087,0.003233532
1.088,0.003051758
1.089,0.003313154
1.09,0.00334234
1.091,0.003175159
1.092,0.003066351
1.093,0.00334234
1.094,0.003066352
1.095,0.003066352
1.096,0.002092448
1.097,0.000610352
1.098,0.000915527
1.099,0.000762939
1.1,0.000639541
1.101,0.000624947
1.102,0.000762939
1.103,0.000733749
1.104,0.000886337
1.105,0.00105352
1.106,0.000915527
1.107,0.000792131
1.108,0.000748343
1.109,0.001053519
1.11,0.00047236
1.111,0.000915527
1.112,0.000762939
1.113,0.000624948
1.114,0.000624948
1.115,0.000639546
1.116,0.000930124
1.117,0.00090093
1.118,0.00090093
1.119,0.000654144
1.12,0.000624949
1.121,0.001889446
1.122,0.00303716
1.123,0.001329497
1.124,0.000762939
1.125,0.000900929
1.126,0.000871732
1.127,0.00062495
1.128,0.000516159
1.129,0.002804978
1.13,0.003204346
1.131,0.003218945
1.132,0.00289917
1.133,0.003218945
1.134,0.003327734
1.135,0.003066358
1.136,0.003066358
1.137,0.003342333
1.138,0.003342333
1.139,0.002928371
1.14,0.003080959
1.141,0.003509521
1.142,0.003465719
1.143,0.003327732
1.144,0.003218947
1.145,0.003204346
1.146,0.004483455
1.147,0.005645752
1.148,0.005645752
1.149,0.005522368
1.15,0.005355178
1.151,0.00579834
1.152,0.005674957
1.153,0.005645752
1.154,0.005783737
1.155,0.005631149
1.156,0.007643997
1.157,0.008101761
1.158,0.008225143
1.159,0.00793457
1.16,0.006793438
1.161,0.005783736
1.162,0.005522372
1.163,0.005812944
1.164,0.005522372
1.165,0.005631148
1.166,0.005921719
1.167,0.005631148
1.168,0.005631147
1.169,0.005783735
1.17,0.005660357
1.171,0.005660357
1.172,0.005631147
1.173,0.005660357
1.174,0.005493164
1.175,0.005493164
1.176,0.00579834
1.177,0.005769128
1.178,0.003480309
1.179,0.003218952
1.18,0.003037152
1.181,0.00337154
1.182,0.00332772
1.183,0.003051758
1.184,0.003022544
1.185,0.001344077
1.186,0.000639566
1.187,0.000915527
1.188,0.000886312
1.189,0.000871705
1.19,0.000624959
1.191,-0.000363607
1.192,-0.001540487
1.193,-0.001387899
1.194,-0.001402508
1.195,-0.003967285
1.196,-0.004134482
1.197,-0.004119873
1.198,-0.004105264
1.199,-0.003967285
1.2,-0.003981894
1.201,-0.002869951
1.202,-0.001939814
1.203,-0.001649248
1.204,0.000486983
1.205,0.000639571
1.206,0.000900917
1.207,0.001860275
1.208,0.003218956
1.209,0.00345108
1.21,0.001191482
1.211,0.000624962
1.212,-0.000486985
1.213,-0.001649245
1.214,-0.002027476
1.215,-0.003952674
1.216,-0.003981897
1.217,-0.004119873
1.218,-0.002978699
1.219,-0.001693079
1.22,-0.000246728
1.221,0.00093014
1.222,0.002957619
1.223,0.005231826
1.224,0.007186243
1.225,0.009257563
1.226,0.012861222
1.227,0.015026679
1.228,0.017453472
1.229,0.019894879
1.23,0.021435372
1.231,0.022917411
1.232,0.024901054
1.233,0.02532959
1.234,0.025191616
1.235,0.02532959
1.236,0.025177002
1.237,0.025344204
1.238,0.024886441
1.239,0.025438333
1.24,0.025191617
1.241,0.025314975
1.242,0.025177002
1.243,0.025191617
1.244,0.023897837
1.245,0.022902799
1.246,0.022844336
1.247,0.020708105
1.248,0.020279573
1.249,0.018557258
1.25,0.017961522
1.251,0.015977879
1.252,0.014132207
1.253,0.012940737
1.254,0.010957094
1.255,0.009126039
1.256,0.008254363
1.257,0.007098544
1.258,0.00579834
1.259,0.004337343
1.26,0.002928405
1.261,0.002928406
1.262,0.001939788
1.263,0.000900909
1.264,0.000639588
1.265,0.000792176
1.266,-0.000654208
1.267,-0.001555116
1.268,-0.001417148
1.269,-0.001860293
1.27,-0.003829316
1.271,-0.004257842
1.272,-0.003996524
1.273,-0.006423311
1.274,-0.006575899
1.275,-0.007840462
1.276,-0.009307861
1.277,-0.009155273
1.278,-0.009140653
1.279,-0.008893959
1.28,-0.008864718
1.281,-0.009002686
1.282,-0.008864719
1.283,-0.009140652
1.284,-0.009126031
1.285,-0.009249376
1.286,-0.008864719
1.287,-0.008973442
1.288,-0.007999427
1.289,-0.006699245
1.29,-0.006379447
1.291,-0.004134495
1.292,-0.00399653
1.293,-0.003981908
1.294,-0.003952662
1.295,-0.002230327
1.296,-0.001649221
1.297,-0.001678467
1.298,-0.001816431
1.299,-0.001417161
1.3,-0.003829321
1.301,-0.004257837
1.302,-0.004272461
1.303,-0.004090625
1.304,-0.004119873
1.305,-0.004119873
1.306,-0.004243212
1.307,-0.004119873
1.308,-0.004119873
1.309,-0.004257836
1.31,-0.004366549
1.311,-0.003843947
1.312,-0.00184568
1.313,-0.001540504
1.314,-0.001540504
1.315,-0.001816429
1.316,-0.001693093
1.317,-0.001801803
1.318,-0.001555131
1.319,-0.001540505
1.32,-0.001649214
1.321,-0.001511252
1.322,-0.00166384
1.323,-0.001249957
1.324,-0.001693094
1.325,-0.001525879
1.326,-0.0018018
1.327,-0.0018018
1.328,-0.001540506
1.329,-0.001693094
1.33,-0.001801799
1.331,-0.001678467
1.332,-0.001954386
1.333,-0.001540507
1.334,-0.001816426
1.335,-0.001525879
1.336,-0.001910499
1.337,-0.00251455
1.338,-0.004134502
1.339,-0.00631462
1.34,-0.010114689
1.341,-0.012599984
1.342,-0.018333514
1.343,-0.024393142
1.344,-0.032720668
1.345,-0.042362968
1.346,-0.053437079
1.347,-0.067642386
1.348,-0.083860597
1.349,-0.100950445
1.35,-0.117887705
1.351,-0.134854226
1.352,-0.150984654
1.353,-0.164215911
1.354,-0.176916247
1.355,-0.183651021
1.356,-0.188686422
1.357,-0.189819336
1.358,-0.186788479
1.359,-0.180749758
1.36,-0.171245411
1.361,-0.158252438
1.362,-0.140050577
1.363,-0.116907373
1.364,-0.089353751
1.365,-0.059024279
1.366,-0.024786052
1.367,0.012503935
1.368,0.055040443
1.369,0.102125324
1.37,0.15212401
1.371,0.205711639
1.372,0.257133771
1.373,0.309703435
1.374,0.361386839
1.375,0.410229609
1.376,0.459043111
1.377,0.507718659
1.378,0.55480979
1.379,0.601073201
1.38,0.646485863
1.381,0.692385558
1.382,0.734514461
1.383,0.778154608
1.384,0.820987908
1.385,0.862767728
1.386,0.901604471
1.387,0.934496511
1.388,0.960428049
1.389,0.975074305
1.39,0.977179075
1.391,0.966692226
1.392,0.942370005
1.393,0.904220826
1.394,0.855842035
1.395,0.800001071
1.396,0.739459155
1.397,0.675888539
1.398,0.612687863
1.399,0.551224204
1.4,0.491497564
1.401,0.434517508
1.402,0.378611775
1.403,0.323644639
1.404,0.271641434
1.405,0.221483922
1.406,0.174058354
1.407,0.128261138
1.408,0.085383931
1.409,0.044927295
1.41,0.008444142
1.411,-0.027464133
1.412,-0.05864218
1.413,-0.086413183
1.414,-0.113362687
1.415,-0.136010448
1.416,-0.156827153
1.417,-0.17308086
1.418,-0.187409485
1.419,-0.198889043
1.42,-0.209191818
1.421,-0.213972145
1.422,-0.216718728
1.423,-0.218781753
1.424,-0.216994622
1.425,-0.215671429
1.426,-0.213244663
1.427,-0.210955844
1.428,-0.208485153
1.429,-0.205920442
1.43,-0.203769569
1.431,-0.202287616
1.432,-0.200042725
1.433,-0.198472918
1.434,-0.197143555
1.435,-0.1972815
1.436,-0.195297857
1.437,-0.195130626
1.438,-0.194992681
1.439,-0.193865992
1.44,-0.192536631
1.441,-0.192551274
1.442,-0.191424583
1.443,-0.189971924
1.444,-0.18995728
1.445,-0.189942635
1.446,-0.18779176
1.447,-0.187116688
1.448,-0.187407219
1.449,-0.18626588
1.45,-0.185227054
1.451,-0.185212409
1.452,-0.184115003
1.453,-0.182647705
1.454,-0.181673595
1.455,-0.180068357
1.456,-0.1790796
1.457,-0.178011484
1.458,-0.175708019
1.459,-0.173157963
1.46,-0.170825205
1.461,-0.168304443
1.462,-0.166872565
1.463,-0.165223392
1.464,-0.16328369
1.465,-0.162934573
1.466,-0.160812989
1.467,-0.160645754
1.468,-0.158509523
1.469,-0.156954348
1.47,-0.155625001
1.471,-0.153518066
1.472,-0.152071534
1.473,-0.150880127
1.474,-0.148758545
1.475,-0.148286132
1.476,-0.146317138
1.477,-0.145830077
1.478,-0.143723144
1.479,-0.143447266
1.48,-0.141281737
1.481,-0.139849848
1.482,-0.138717042
1.483,-0.137393791
1.484,-0.136108398
1.485,-0.135090321
1.486,-0.133558355
1.487,-0.132830801
1.488,-0.131087649
1.489,-0.130251456
1.49,-0.128813481
1.491,-0.12764281
1.492,-0.126633298
1.493,-0.125201402
1.494,-0.124039304
1.495,-0.121612549
1.496,-0.120485827
1.497,-0.119294427
1.498,-0.116882324
1.499,-0.115341793
1.5,-0.114273678
1.501,-0.112275383
1.502,-0.111403813
1.503,-0.109514147
1.504,-0.107958963
1.505,-0.106826176
1.506,-0.10565549
1.507,-0.104188223
1.508,-0.102219233
1.509,-0.102008031
1.51,-0.099915761
1.511,-0.098375228
1.512,-0.097277804
1.513,-0.094727772
1.514,-0.092207049
1.515,-0.090789795
1.516,-0.089707025
1.517,-0.087585449
1.518,-0.087265619
1.519,-0.085267321
1.52,-0.083544889
1.521,-0.082629361
1.522,-0.081256069
1.523,-0.080093987
1.524,-0.079941399
1.525,-0.078800005
1.526,-0.077637924
1.527,-0.077347404
1.528,-0.075349105
1.529,-0.074920654
1.53,-0.073946501
1.531,-0.072631836
1.532,-0.072587865
1.533,-0.070343018
1.534,-0.070175773
1.535,-0.068024885
1.536,-0.067458505
1.537,-0.067705051
1.538,-0.065612793
1.539,-0.065445547
1.54,-0.064304142
1.541,-0.062866211
1.542,-0.061710146
1.543,-0.060410146
1.544,-0.059283397
1.545,-0.058135986
1.546,-0.057678223
1.547,-0.055970438
1.548,-0.055404063
1.549,-0.055128206
1.55,-0.055280795
1.551,-0.055498014
1.552,-0.053514371
1.553,-0.052947998
1.554,-0.053085926
1.555,-0.052933338
1.556,-0.050949695
1.557,-0.050477271
1.558,-0.04832638
1.559,-0.047636743
1.56,-0.046234131
1.561,-0.045747045
1.562,-0.043472888
1.563,-0.043443565
1.564,-0.041002158
1.565,-0.040435791
1.566,-0.038328884
1.567,-0.038161635
1.568,-0.037325385
1.569,-0.036148668
1.57,-0.036010742
1.571,-0.035814167
1.572,-0.033707261
1.573,-0.033431411
1.574,-0.033278823
1.575,-0.031265855
1.576,-0.03108394
1.577,-0.029863237
1.578,-0.028396011
1.579,-0.028504608
1.58,-0.026383041
1.581,-0.024842498
1.582,-0.023789047
1.583,-0.022662275
1.584,-0.021224381
1.585,-0.021456235
1.586,-0.019058822
1.587,-0.018630387
1.588,-0.019029492
1.589,-0.017503612
1.59,-0.01660275
1.591,-0.016755337
1.592,-0.015751817
1.593,-0.013929495
1.594,-0.012773386
1.595,-0.01141476
1.596,-0.011109584
1.597,-0.009416451
1.598,-0.009263862
1.599,-0.007875905
1.6,-0.006575946
1.601,-0.006793121
1.602,-0.004257794
1.603,-0.004075872
1.604,-0.001845722
1.605,-0.001663799
1.606,-0.000384426
1.607,0.000610352
1.608,0.000944863
1.609,0.003051758
1.61,0.003233682
1.611,0.005340576
1.612,0.005950928
1.613,0.00753548
1.614,0.008101827
1.615,0.010223389
1.616,0.010419983
1.617,0.012679464
1.618,0.013013978
1.619,0.014096763
1.62,0.015258789
1.621,0.015701883
1.622,0.017823444
1.623,0.018034711
1.624,0.020308859
1.625,0.020490788
1.626,0.022612348
1.627,0.02320803
1.628,0.024901167
1.629,0.026180554
1.63,0.028636632
1.631,0.02995124
1.632,0.031978896
1.633,0.034790039
1.634,0.036084099
1.635,0.038648751
1.636,0.039810768
1.637,0.042084914
1.638,0.043088473
1.639,0.044585008
1.64,0.046815138
1.641,0.048109203
1.642,0.049467822
1.643,0.051618725
1.644,0.054016113
1.645,0.055433423
1.646,0.056821388
1.647,0.058790358
1.648,0.061369679
1.649,0.062649077
1.65,0.064116262
1.651,0.066129252
1.652,0.068664551
1.653,0.069943951
1.654,0.071455156
1.655,0.073837865
1.656,0.074841439
1.657,0.077297521
1.658,0.078597439
1.659,0.078444851
1.66,0.078764702
1.661,0.07862679
1.662,0.083409884
1.663,0.088545003
1.664,0.090390734
1.665,0.090804471
1.666,0.092207114
1.667,0.093521701
1.668,0.093536377
1.669,0.094358022
1.67,0.095564049
1.671,0.096101018
1.672,0.096966695
1.673,0.098419189
1.674,0.098266602
1.675,0.099516659
1.676,0.100831241
1.677,0.100722685
1.678,0.100998506
1.679,0.10069333
1.68,0.100998506
1.681,0.103302002
1.682,0.103026183
1.683,0.103302002
1.684,0.103272645
1.685,0.103287323
1.686,0.102298401
1.687,0.100860596
1.688,0.100599458
1.689,0.099566496
1.69,0.098419189
1.691,0.09700186
1.692,0.095795836
1.693,0.093659605
1.694,0.091937098
1.695,0.089554412
1.696,0.08737414
1.697,0.084750784
1.698,0.081285304
1.699,0.07774642
1.7,0.074817888
1.701,0.071504996
1.702,0.067951431
1.703,0.064210139
1.704,0.060612528
1.705,0.055759078
1.706,0.052736683
1.707,0.0485434
1.708,0.04352268
1.709,0.039904616
1.71,0.036351047
1.711,0.031881949
1.712,0.026738008
1.713,0.021869877
1.714,0.01697238
1.715,0.012089567
1.716,0.006778356
1.717,0.002382673
1.718,-0.000255372
1.719,-0.005246723
1.72,-0.009868412
1.721,-0.014628005
1.722,-0.019648723
1.723,-0.024959932
1.724,-0.029384981
1.725,-0.03466682
1.726,-0.037196335
1.727,-0.041744603
1.728,-0.044796362
1.729,-0.048930921
1.73,-0.051953309
1.731,-0.056407729
1.732,-0.06115264
1.733,-0.063717264
1.734,-0.068629449
1.735,-0.073374361
1.736,-0.076120944
1.737,-0.079847526
1.738,-0.081998443
1.739,-0.084483909
1.74,-0.087171746
1.741,-0.089431191
1.742,-0.090986444
1.743,-0.092039872
1.744,-0.09419079
1.745,-0.095731357
1.746,-0.097365762
1.747,-0.099334717
1.748,-0.099349405
1.749,-0.099472617
1.75,-0.10062886
1.751,-0.102081299
1.752,-0.101652912
1.753,-0.101776123
1.754,-0.102233887
1.755,-0.102051921
1.756,-0.100024211
1.757,-0.099487305
1.758,-0.099349406
1.759,-0.099487305
1.76,-0.099595824
1.761,-0.099501994
1.762,-0.099211509
1.763,-0.098483638
1.764,-0.097045898
1.765,-0.096784793
1.766,-0.097183796
1.767,-0.097183796
1.768,-0.097045898
1.769,-0.097031208
1.77,-0.094786462
1.771,-0.094466595
1.772,-0.094633875
1.773,-0.094604492
1.774,-0.092394804
1.775,-0.092163086
1.776,-0.091144716
1.777,-0.08972168
1.778,-0.089539708
1.779,-0.087541372
1.78,-0.087098301
1.781,-0.085237861
1.782,-0.084917992
1.783,-0.082673251
1.784,-0.082397461
1.785,-0.081393775
1.786,-0.079956055
1.787,-0.07981816
1.788,-0.077514648
1.789,-0.077637849
1.79,-0.07611197
1.791,-0.075058548
1.792,-0.075043854
1.793,-0.072922317
1.794,-0.072464554
1.795,-0.070313628
1.796,-0.069048841
1.797,-0.06761113
1.798,-0.068118617
1.799,-0.065322312
1.8,-0.065307617
1.801,-0.064303917
1.802,-0.063004103
1.803,-0.06283682
1.804,-0.060562697
1.805,-0.060410109
1.806,-0.060410109
1.807,-0.058288574
1.808,-0.057998095
1.809,-0.058106593
1.81,-0.058135986
1.811,-0.05769292
1.812,-0.057983398
1.813,-0.057707617
1.814,-0.057801416
1.815,-0.057954004
1.816,-0.055970361
1.817,-0.055512597
1.818,-0.054429783
1.819,-0.053100586
1.82,-0.052962696
1.821,-0.050811768
1.822,-0.049394381
1.823,-0.048188376
1.824,-0.046081543
1.825,-0.045638478
1.826,-0.044772646
1.827,-0.04334966
1.828,-0.043138275
1.829,-0.041046143
1.83,-0.040740967
1.831,-0.040603079
1.832,-0.040696867
1.833,-0.038821712
1.834,-0.038146973
1.835,-0.038299561
1.836,-0.038452148
1.837,-0.038590036
1.838,-0.038408046
1.839,-0.038176374
1.84,-0.03828486
1.841,-0.036773682
1.842,-0.035872856
1.843,-0.035996041
1.844,-0.03573497
1.845,-0.034992303
1.846,-0.033155678
1.847,-0.033446152
1.848,-0.032181343
1.849,-0.030822754
1.85,-0.030990044
1.851,-0.031113227
1.852,-0.030990045
1.853,-0.030778645
1.854,-0.028701226
1.855,-0.028366644
1.856,-0.028563342
1.857,-0.028548639
1.858,-0.028701227
1.859,-0.028396051
1.86,-0.028686523
1.861,-0.028533936
1.862,-0.02854864
1.863,-0.028410756
1.864,-0.028533936
1.865,-0.02854864
1.866,-0.028686523
1.867,-0.028671819
1.868,-0.028533936
1.869,-0.028475115
1.87,-0.026811353
1.871,-0.026092529
1.872,-0.025846176
1.873,-0.026092529
1.874,-0.026063117
1.875,-0.023941593
1.876,-0.024064768
1.877,-0.024217356
1.878,-0.023912179
1.879,-0.021500186
1.88,-0.021362305
1.881,-0.021362305
1.882,-0.021071836
1.883,-0.021180302
1.884,-0.019211367
1.885,-0.018891483
1.886,-0.018477842
1.887,-0.018906191
1.888,-0.019088194
1.889,-0.018891482
1.89,-0.016479492
1.891,-0.016203733
1.892,-0.016558538
1.893,-0.016174316
1.894,-0.016602663
1.895,-0.016464783
1.896,-0.016356322
1.897,-0.016326904
1.898,-0.016356323
1.899,-0.016326904
1.9,-0.016356324
1.901,-0.016450073
1.902,-0.016464782
1.903,-0.016203737
1.904,-0.016479492
1.905,-0.016218447
1.906,-0.016464782
1.907,-0.016312194
1.908,-0.016326904
1.909,-0.016755246
1.91,-0.016095284
1.911,-0.016341616
1.912,-0.01621845
1.913,-0.018507269
1.914,-0.018797734
1.915,-0.019044063
1.916,-0.019058774
1.917,-0.018477847
1.918,-0.018797735
1.919,-0.018891474
1.92,-0.018536697
1.921,-0.018783023
1.922,-0.018783023
1.923,-0.018935611
1.924,-0.017641343
1.925,-0.016312191
1.926,-0.016617367
1.927,-0.016464779
1.928,-0.016326904
1.929,-0.016312191
1.93,-0.016725812
1.931,-0.01618903
1.932,-0.016282762
1.933,-0.016356333
1.934,-0.016326904
1.935,-0.016450063
1.936,-0.016435348
1.937,-0.016218461
1.938,-0.016464777
1.939,-0.014052801
1.94,-0.013870783
1.941,-0.013856067
1.942,-0.01402337
1.943,-0.013595038
1.944,-0.013856066
1.945,-0.013870782
1.946,-0.014038086
1.947,-0.01397922
1.948,-0.011719835
1.949,-0.011581963
1.95,-0.011429375
1.951,-0.011429375
1.952,-0.010469696
1.953,-0.008850098
1.954,-0.009002686
1.955,-0.009839213
1.956,-0.011291504
1.957,-0.011444092
1.958,-0.011552526
1.959,-0.011335658
1.96,-0.011350377
1.961,-0.011414655
1.962,-0.011581961
1.963,-0.011581961
1.964,-0.011168354
1.965,-0.01159668
1.966,-0.011168354
1.967,-0.011320942
1.968,-0.011168355
1.969,-0.011690389
1.97,-0.011719828
1.971,-0.011734548
1.972,-0.011857696
1.973,-0.011734547
1.974,-0.011734547
1.975,-0.011734547
1.976,-0.009037509
1.977,-0.006684426
1.978,-0.006684426
1.979,-0.006452854
1.98,-0.006576
1.981,-0.006713867
1.982,-0.006699146
1.983,-0.006728589
1.984,-0.006300269
1.985,-0.006561279
1.986,-0.006699145
1.987,-0.006807567
1.988,-0.006561279
1.989,-0.006285548
1.99,-0.005281686
1.991,-0.00410515
1.992,-0.003967285
1.993,-0.004134596
1.994,-0.004395603
1.995,-0.004272461
1.996,-0.004119873
1.997,-0.004119873
1.998,-0.004090426
1.999,-0.004105149
2,-0.004119873
2.001,-0.004243013
2.002,-0.004149322
2.003,-0.004243012
2.004,-0.002840272
2.005,-0.001693191
2.006,-0.001388016
2.007,-0.00181633
2.008,-0.001634291
2.009,0.000349352
2.01,0.00050194
2.011,0.000639803
2.012,0.003081209
2.013,0.00308121
2.014,0.001939465
2.015,0.000777666
2.016,0.000777666
2.017,0.000733487
2.018,0.000915527
2.019,0.000748213
2.02,0.000915527
2.021,0.00080712
2.022,0.000886073
2.023,0.000610352
2.024,0.000886072
2.025,0.000762939
2.026,0.000364087
2.027,0.000930255
2.028,0.00303703
2.029,0.003095942
2.03,0.003204346
2.031,0.000856614
2.032,0.000762939
2.033,0.00088607
2.034,0.0020131
2.035,0.003327476
2.036,0.003480063
2.037,0.003037029
2.038,0.002928629
2.039,0.003233805
2.04,0.003051758
2.041,0.003095947
2.042,0.003603189
2.043,0.003342203
2.044,0.003066488
2.045,0.002790773
2.046,0.003356934
2.047,0.002943362
2.048,0.003066489
2.049,0.003037027
2.05,0.003189615
2.051,0.002913901
2.052,0.003189614
2.053,0.003204346
2.054,0.003219077
2.055,0.002928634
2.056,0.002913902
2.057,0.003189614
2.058,0.00323381
2.059,0.003342201
2.06,0.003356934
2.061,0.003219078
2.062,0.003342201
2.063,0.003219079
2.064,0.003189613
2.065,0.002928637
2.066,0.003066491
2.067,0.002928637
2.068,0.003110693
2.069,0.0033422
2.07,0.003081226
2.071,0.002958107
2.072,0.004223013
2.073,0.005827809
2.074,0.005507899
2.075,0.005754136
2.076,0.005645752
2.077,0.005645752
2.078,0.005645752
2.079,0.00579834
2.08,0.0055079
2.081,0.005783604
2.082,0.005522636
2.083,0.00579834
2.084,0.005783604
2.085,0.005370049
2.086,0.005645752
2.087,0.005507901
2.088,0.005768867
2.089,0.005631015
2.09,0.005660489
2.091,0.005645752
2.092,0.005768865
2.093,0.005616277
2.094,0.005675227
2.095,0.005768865
2.096,0.005645752
2.097,0.005891976
2.098,0.005783602
2.099,0.005754125
2.1,0.005645752
2.101,0.005645752
2.102,0.00579834
2.103,0.005493164
2.104,0.005783601
2.105,0.00567523
2.106,0.005507903
2.107,0.005384794
2.108,0.005950928
2.109,0.0057836
2.11,0.005384795
2.111,0.004503937
2.112,0.003160126
2.113,0.003219086
2.114,0.003204346
2.115,0.003356934
2.116,0.003081239
2.117,0.003204346
2.118,0.003066499
2.119,0.00349478
2.12,0.003342192
2.121,0.003066499
2.122,0.003081241
2.123,0.00332745
2.124,0.003189604
2.125,0.002958138
2.126,0.005064885
2.127,0.005522648
2.128,0.00579834
2.129,0.006743352
2.13,0.008362849
2.131,0.008101901
2.132,0.007964056
2.133,0.008195517
2.134,0.009243733
2.135,0.010528564
2.136,0.010543308
2.137,0.01151781
2.138,0.012969971
2.139,0.012817383
2.14,0.012955227
2.141,0.012846871
2.142,0.012846872
2.143,0.012969971
2.144,0.013107814
2.145,0.013107814
2.146,0.012802638
2.147,0.012512207
2.148,0.011232523
2.149,0.010651662
2.15,0.010818995
2.151,0.010361231
2.152,0.010681152
2.153,0.010361231
2.154,0.008377588
2.155,0.007964063
2.156,0.008057665
2.157,0.008101905
2.158,0.008072412
2.159,0.007919824
2.16,0.008239746
2.161,0.008239746
2.162,0.007949318
2.163,0.008362839
2.164,0.008087158
2.165,0.007949318
2.166,0.00807241
2.167,0.00807241
2.168,0.008087158
2.169,0.00807241
2.17,0.008210249
2.171,0.008101907
2.172,0.008087158
2.173,0.009366857
2.174,0.010543313
2.175,0.01095683
2.176,0.010636905
2.177,0.010513815
2.178,0.010528564
2.179,0.010361227
2.18,0.010942079
2.181,0.010405476
2.182,0.010528564
2.183,0.008530172
2.184,0.007978821
2.185,0.008239746
2.186,0.007978822
2.187,0.008072407
2.188,0.008087158
2.189,0.008210244
2.19,0.007964073
2.191,0.008072407
2.192,0.008116661
2.193,0.008087158
2.194,0.008210242
2.195,0.007949322
2.196,0.00793457
2.197,0.00810191
2.198,0.008101911
2.199,0.008072406
2.2,0.007964076
2.201,0.008101911
2.202,0.008116664
2.203,0.008377581
2.204,0.008116665
2.205,0.008101912
2.206,0.010115061
2.207,0.010543318
2.208,0.01039073
2.209,0.011626188
2.21,0.012984725
2.211,0.012694303
2.212,0.012118505
2.213,0.01042024
2.214,0.010804231
2.215,0.010681152
2.216,0.010375977
2.217,0.010499054
2.218,0.008362823
2.219,0.008180724
2.22,0.007964081
2.221,0.008254502
2.222,0.008239746
2.223,0.007949326
2.224,0.008087158
2.225,0.007235681
2.226,0.005630996
2.227,0.005783583
2.228,0.005783583
2.229,0.005645752
2.23,0.005630995
2.231,0.005660509
2.232,0.005630995
2.233,0.005586722
2.234,0.003647352
2.235,0.003051758
2.236,0.002913928
2.237,0.001801539
2.238,0.000900769
2.239,0.00062511
2.24,0.000748181
2.241,0.000777698
2.242,0.000639869
2.243,0.000900768
2.244,0.000915527
2.245,0.001009079
2.246,-0.001540638
2.247,-0.001250222
2.248,-0.001801536
2.249,-0.001373291
2.25,-0.00068914
2.251,0.000777699
2.252,0.000748179
2.253,0.000639872
2.254,0.000502045
2.255,0.000610352
2.256,0.000915527
2.257,0.000625112
2.258,0.000792461
2.259,0.000762939
2.26,0.000777701
2.261,0.000777701
2.262,0.000733416
2.263,0.000762939
2.264,0.001191179
2.265,0.000777701
2.266,0.000531574
2.267,-0.000255924
2.268,-0.001663704
2.269,-0.001895067
2.27,-0.001845817
2.271,-0.001816292
2.272,-0.001540642
2.273,-0.001968879
2.274,-0.001678467
2.275,-0.00164894
2.276,-0.001801528
2.277,-0.001678467
2.278,-0.001816291
2.279,-0.001525879
2.28,-0.000413471
2.281,0.000930292
2.282,0.000762939
2.283,0.000487293
2.284,0.000625116
2.285,0.000625116
2.286,0.00105335
2.287,0.000595586
2.288,0.000930293
2.289,0.000639882
2.29,0.000733408
2.291,0.000900762
2.292,0.000777705
2.293,0.000487296
2.294,0.000502062
2.295,0.000900761
2.296,0.000900761
2.297,0.001009049
2.298,0.000777706
2.299,0.001068115
2.3,0.000639886
2.301,0.00090076
2.302,0.000777707
2.303,0.000639886
2.304,0.000762939
2.305,0.00090076
2.306,0.000945063
2.307,0.002500478
2.308,0.003081294
2.309,0.003342165
2.31,0.003327397
2.311,0.003022221
2.312,0.004361073
2.313,0.005630983
2.314,0.005355345
2.315,0.005645752
2.316,0.005645752
2.317,0.004365971
2.318,0.003204346
2.319,0.003036988
2.32,0.001191163
2.321,0.000733399
2.322,-0.001388061
2.323,-0.002943481
2.324,-0.00425769
2.325,-0.003859009
2.326,-0.006177369
2.327,-0.006516967
2.328,-0.004533324
2.329,-0.00384424
2.33,-0.004075559
2.331,-0.001693238
2.332,-0.000551265
2.333,0.001904914
2.334,0.004316777
2.335,0.007688483
2.336,0.010238161
2.337,0.014234991
2.338,0.016705943
2.339,0.019117804
2.34,0.020323735
2.341,0.021160539
2.342,0.022902957
2.343,0.022888184
2.344,0.022888184
2.345,0.022888184
2.346,0.023178586
2.347,0.022888184
2.348,0.02275037
2.349,0.02275037
2.35,0.022597782
2.351,0.022873409
2.352,0.022597782
2.353,0.023011222
2.354,0.022735596
2.355,0.022829084
2.356,0.02058459
2.357,0.020048115
2.358,0.019319561
2.359,0.017990596
2.36,0.016587753
2.361,0.015273565
2.362,0.013275146
2.363,0.011719715
2.364,0.010499012
2.365,0.008515369
2.366,0.006822126
2.367,0.005921374
2.368,0.004351165
2.369,0.003356934
2.37,0.002121453
2.371,0.000625129
2.372,0.000610352
2.373,0.000885972
2.374,0.000580796
2.375,-0.001540657
2.376,-0.001540657
2.377,-0.001801499
2.378,-0.001265038
2.379,-0.003096093
2.38,-0.004272461
2.381,-0.004380713
2.382,-0.00390337
2.383,-0.006393912
2.384,-0.006300441
2.385,-0.006822117
2.386,-0.006684308
2.387,-0.006256104
2.388,-0.004257681
2.389,-0.004257681
2.39,-0.004272461
2.391,-0.003662109
2.392,-0.001693247
2.393,-0.001525879
2.394,0.000182149
2.395,0.000885966
2.396,0.002057547
2.397,0.003204346
2.398,0.003219127
2.399,0.003327371
2.4,0.003219127
2.401,0.00349474
2.402,0.003189564
2.403,0.003342152
2.404,0.003342152
2.405,0.002913952
2.406,0.003327369
2.407,0.003189563
2.408,0.003051758
2.409,0.003189563
2.41,0.003081323
2.411,0.003051758
2.412,0.003494738
2.413,0.002200119
2.414,0.000595568
2.415,0.000748156
2.416,0.000915527
2.417,0.000733372
2.418,0.000748155
2.419,0.000777724
2.42,0.000945096
2.421,0.003036973
2.422,0.003465168
2.423,0.003066543
2.424,0.003110897
2.425,0.005370146
2.426,0.005891787
2.427,0.004228105
2.428,0.003356934
2.429,0.003066543
2.43,0.003327362
2.431,0.003174774
2.432,0.003159988
2.433,0.00318956
2.434,0.003204346
2.435,0.003174773
2.436,0.005217561
2.437,0.005507951
2.438,0.005660539
2.439,0.005630965
2.44,0.005827914
2.441,0.008072371
2.442,0.008087158
2.443,0.008101946
2.444,0.008101946
2.445,0.008239746
2.446,0.008224958
2.447,0.006851667
2.448,0.005616175
2.449,0.003312568
2.45,0.000994172
2.451,-0.001417657
2.452,-0.004602515
2.453,-0.009746138
2.454,-0.014811118
2.455,-0.020973792
2.456,-0.030434244
2.457,-0.039968643
2.458,-0.05342596
2.459,-0.06810398
2.46,-0.084780433
2.461,-0.102889339
2.462,-0.120638596
2.463,-0.136325571
2.464,-0.151082229
2.465,-0.164711607
2.466,-0.172326213
2.467,-0.177489299
2.468,-0.179901123
2.469,-0.177021419
2.47,-0.17207944
2.471,-0.162530239
2.472,-0.150387043
2.473,-0.132583301
2.474,-0.112047767
2.475,-0.086491623
2.476,-0.058311899
2.477,-0.026972204
2.478,0.008044393
2.479,0.045684572
2.48,0.089260887
2.481,0.136666695
2.482,0.186607326
2.483,0.236641373
2.484,0.288019123
2.485,0.337014641
2.486,0.386241366
2.487,0.433666623
2.488,0.479900764
2.489,0.524441644
2.49,0.568234379
2.491,0.614729313
2.492,0.658935427
2.493,0.700483727
2.494,0.744123874
2.495,0.785809968
2.496,0.827545084
2.497,0.867921704
2.498,0.904911797
2.499,0.937068095
2.5,0.959581761
2.501,0.971310699
2.502,0.968622389
2.503,0.951556591
2.504,0.921688201
2.505,0.880833477
2.506,0.831399611
2.507,0.774764519
2.508,0.714630079
2.509,0.65254159
2.51,0.591659008
2.511,0.530348256
2.512,0.472758805
2.513,0.416301272
2.514,0.360331099
2.515,0.305763813
2.516,0.253623136
2.517,0.204352034
2.518,0.155612688
2.519,0.109880705
2.52,0.065718999
2.521,0.025357192
2.522,-0.012410619
2.523,-0.046974083
2.524,-0.078165813
2.525,-0.106030206
2.526,-0.130719851
2.527,-0.154114794
2.528,-0.171923182
2.529,-0.187718327
2.53,-0.201180253
2.531,-0.211433244
2.532,-0.219751579
2.533,-0.225401915
2.534,-0.227735136
2.535,-0.229004822
2.536,-0.227021179
2.537,-0.225465698
2.538,-0.222965087
2.539,-0.219514769
2.54,-0.216221614
2.541,-0.212205351
2.542,-0.208375852
2.543,-0.206072231
2.544,-0.20376861
2.545,-0.200899043
2.546,-0.199860532
2.547,-0.197783511
2.548,-0.196001426
2.549,-0.195115504
2.55,-0.193727409
2.551,-0.192339315
2.552,-0.192536312
2.553,-0.192398527
2.554,-0.190262296
2.555,-0.190094904
2.556,-0.190217885
2.557,-0.187820889
2.558,-0.187668301
2.559,-0.185241699
2.56,-0.183961779
2.561,-0.18266251
2.562,-0.182480313
2.563,-0.180634453
2.564,-0.18046706
2.565,-0.180437449
2.566,-0.178453806
2.567,-0.177641915
2.568,-0.176470162
2.569,-0.17520051
2.57,-0.174073172
2.571,-0.172714686
2.572,-0.170593262
2.573,-0.170578456
2.574,-0.169313333
2.575,-0.167861486
2.576,-0.167024514
2.577,-0.165818617
2.578,-0.164415711
2.579,-0.162978674
2.58,-0.160645434
2.581,-0.15838623
2.582,-0.156815929
2.583,-0.155885594
2.584,-0.153503418
2.585,-0.152070895
2.586,-0.150879808
2.587,-0.148743577
2.588,-0.148468018
2.589,-0.147158463
2.59,-0.145903641
2.591,-0.146011803
2.592,-0.143752602
2.593,-0.143585205
2.594,-0.141143799
2.595,-0.140976402
2.596,-0.139115728
2.597,-0.137299482
2.598,-0.136369145
2.599,-0.13381958
2.6,-0.132692224
2.601,-0.131486331
2.602,-0.129089355
2.603,-0.127656822
2.604,-0.126741294
2.605,-0.124009523
2.606,-0.122882163
2.607,-0.121474772
2.608,-0.119584473
2.609,-0.117891194
2.61,-0.116532714
2.611,-0.114519448
2.612,-0.111999512
2.613,-0.110444009
2.614,-0.10832259
2.615,-0.106796711
2.616,-0.104522705
2.617,-0.104064941
2.618,-0.102356849
2.619,-0.102096112
2.62,-0.100648756
2.621,-0.099457678
2.622,-0.097336261
2.623,-0.096863684
2.624,-0.09515559
2.625,-0.093491936
2.626,-0.092133458
2.627,-0.090912755
2.628,-0.089829825
2.629,-0.089431318
2.63,-0.089706865
2.631,-0.087432861
2.632,-0.087265459
2.633,-0.087280273
2.634,-0.087358786
2.635,-0.085114413
2.636,-0.08497664
2.637,-0.084809236
2.638,-0.082825594
2.639,-0.082520417
2.64,-0.081255267
2.641,-0.079833099
2.642,-0.079926422
2.643,-0.077667236
2.644,-0.077637604
2.645,-0.076249496
2.646,-0.074876204
2.647,-0.072922195
2.648,-0.072479248
2.649,-0.070465971
2.65,-0.068910457
2.651,-0.067719389
2.652,-0.066592003
2.653,-0.065445387
2.654,-0.065445387
2.655,-0.064027642
2.656,-0.062881029
2.657,-0.062881029
2.658,-0.062590672
2.659,-0.061738821
2.66,-0.060409986
2.661,-0.059282595
2.662,-0.057693042
2.663,-0.05656565
2.664,-0.055512354
2.665,-0.053361303
2.666,-0.052825049
2.667,-0.051850243
2.668,-0.05064436
2.669,-0.050506592
2.67,-0.049379196
2.671,-0.048370361
2.672,-0.047075556
2.673,-0.045668241
2.674,-0.044648969
2.675,-0.043182373
2.676,-0.042207562
2.677,-0.0406032
2.678,-0.040632843
2.679,-0.040740967
2.68,-0.038835804
2.681,-0.038299561
2.682,-0.038437327
2.683,-0.037157335
2.684,-0.035735211
2.685,-0.035690744
2.686,-0.033982632
2.687,-0.03326416
2.688,-0.033111572
2.689,-0.03112793
2.69,-0.031236049
2.691,-0.028809465
2.692,-0.027514645
2.693,-0.026230294
2.694,-0.026077706
2.695,-0.024842179
2.696,-0.023665947
2.697,-0.023651123
2.698,-0.024019942
2.699,-0.021362305
2.7,-0.021209717
2.701,-0.02134748
2.702,-0.021362305
2.703,-0.021332655
2.704,-0.021209717
2.705,-0.021224542
2.706,-0.02108678
2.707,-0.021362305
2.708,-0.021224542
2.709,-0.020220061
2.71,-0.01905866
2.711,-0.018935724
2.712,-0.018571244
2.713,-0.016863124
2.714,-0.016312078
2.715,-0.014190674
2.716,-0.013870671
2.717,-0.011872202
2.718,-0.011335985
2.719,-0.01016408
2.72,-0.009002686
2.721,-0.008879753
2.722,-0.00787526
2.723,-0.006438347
2.724,-0.005158333
2.725,-0.004227977
2.726,-0.00303693
2.727,-0.001678467
2.728,-0.00026069
2.729,0.000807425
2.73,0.002913999
2.731,0.004469535
2.732,0.005813169
2.733,0.007811641
2.734,0.00922942
2.735,0.010956669
2.736,0.012709284
2.737,0.014235163
2.738,0.016538812
2.739,0.018872121
2.74,0.02035351
2.741,0.022765256
2.742,0.025009584
2.743,0.026442197
2.744,0.027800658
2.745,0.030074645
2.746,0.031325011
2.747,0.032407958
2.748,0.034667114
2.749,0.035110046
2.75,0.037246277
2.751,0.037551453
2.752,0.03965802
2.753,0.040785463
2.754,0.041823914
2.755,0.043241702
2.756,0.044570497
2.757,0.044555664
2.758,0.045697943
2.759,0.047026736
2.76,0.049285889
2.761,0.049620731
2.762,0.051727295
2.763,0.053145086
2.764,0.054488711
2.765,0.056747862
2.766,0.056959785
2.767,0.058697588
2.768,0.061507754
2.769,0.062925548
2.77,0.065229202
2.771,0.06655799
2.772,0.068709055
2.773,0.068984561
2.774,0.071258545
2.775,0.071563721
2.776,0.073685116
2.777,0.073867375
2.778,0.073774129
2.779,0.076141357
2.78,0.076323617
2.781,0.078046592
2.782,0.078765024
2.783,0.081039006
2.784,0.081068679
2.785,0.08345074
2.786,0.083662674
2.787,0.085892145
2.788,0.085906982
2.789,0.085769232
2.79,0.087078959
2.791,0.088638727
2.792,0.088348389
2.793,0.088318713
2.794,0.088378065
2.795,0.088530653
2.796,0.088363227
2.797,0.090666884
2.798,0.091065294
2.799,0.090804634
2.8,0.090957222
2.801,0.090789795
2.802,0.090912705
2.803,0.088806152
2.804,0.088515816
2.805,0.086792831
2.806,0.085985372
2.807,0.083785592
2.808,0.083588484
2.809,0.081392893
2.81,0.07890278
2.811,0.077607875
2.812,0.074768066
2.813,0.072710221
2.814,0.070283654
2.815,0.067615455
2.816,0.064455631
2.817,0.060670616
2.818,0.058017255
2.819,0.0534693
2.82,0.050432383
2.821,0.045992492
2.822,0.043353971
2.823,0.038943763
2.824,0.034656459
2.825,0.031481797
2.826,0.026859631
2.827,0.022036188
2.828,0.019122175
2.829,0.014269047
2.83,0.009661723
2.831,0.005891555
2.832,0.002199758
2.833,-0.001462352
2.834,-0.00515415
2.835,-0.007748145
2.836,-0.012340627
2.837,-0.015057522
2.838,-0.019344828
2.839,-0.02265723
2.84,-0.027082279
2.841,-0.029691119
2.842,-0.033048053
2.843,-0.037182772
2.844,-0.040588379
2.845,-0.044216662
2.846,-0.0469484
2.847,-0.050413386
2.848,-0.052825102
2.849,-0.056256265
2.85,-0.058973156
2.851,-0.061552304
2.852,-0.063900508
2.853,-0.06747354
2.854,-0.069304595
2.855,-0.07147052
2.856,-0.072553482
2.857,-0.074935501
2.858,-0.075117784
2.859,-0.076978533
2.86,-0.077559191
2.861,-0.079513139
2.862,-0.080108643
2.863,-0.082107133
2.864,-0.082442005
2.865,-0.082092285
2.866,-0.082259721
2.867,-0.082550049
2.868,-0.082230024
2.869,-0.0825352
2.87,-0.082259722
2.871,-0.082367763
2.872,-0.082382612
2.873,-0.082397461
2.874,-0.08242716
2.875,-0.082107135
2.876,-0.082136834
2.877,-0.081284796
2.878,-0.079970905
2.879,-0.079941205
2.88,-0.079680579
2.881,-0.07969543
2.882,-0.079970905
2.883,-0.079833168
2.884,-0.079695431
2.885,-0.079911502
2.886,-0.078936569
2.887,-0.077637534
2.888,-0.077239175
2.889,-0.077484945
2.89,-0.075333863
2.891,-0.07505839
2.892,-0.075210978
2.893,-0.072631836
2.894,-0.072508953
2.895,-0.072754719
2.896,-0.07035787
2.897,-0.069914959
2.898,-0.070052695
2.899,-0.070008136
2.9,-0.067886758
2.901,-0.067871905
2.902,-0.067458701
2.903,-0.067473555
2.904,-0.066621493
2.905,-0.065460205
2.906,-0.065032149
2.907,-0.064425845
2.908,-0.06298909
2.909,-0.06298909
2.91,-0.061600944
2.911,-0.060395095
2.912,-0.060301927
2.913,-0.06040995
2.914,-0.059129826
2.915,-0.057983398
2.916,-0.058106275
2.917,-0.058106275
2.918,-0.055679724
2.919,-0.055497425
2.92,-0.053543494
2.921,-0.052918286
2.922,-0.050949499
2.923,-0.049408764
2.924,-0.048355505
2.925,-0.04818806
2.926,-0.046814769
2.927,-0.045776367
2.928,-0.045638636
2.929,-0.045884383
2.93,-0.043502406
2.931,-0.043167515
2.932,-0.043197231
2.933,-0.042315428
2.934,-0.040863839
2.935,-0.040863838
2.936,-0.041031284
2.937,-0.041016426
2.938,-0.040878696
2.939,-0.040740967
2.94,-0.040618097
2.941,-0.040726108
2.942,-0.040770685
2.943,-0.040740967
2.944,-0.040878695
2.945,-0.040848976
2.946,-0.040558659
2.947,-0.038727604
2.948,-0.038575016
2.949,-0.038299561
2.95,-0.038422428
2.951,-0.036315918
2.952,-0.036271336
2.953,-0.036025603
2.954,-0.035720427
2.955,-0.036089025
2.956,-0.033721924
2.957,-0.033554475
2.958,-0.03343161
2.959,-0.033584198
2.96,-0.03241205
2.961,-0.030975342
2.962,-0.030975342
2.963,-0.031113068
2.964,-0.032270357
2.965,-0.033416748
2.966,-0.033662473
2.967,-0.030960479
2.968,-0.03085248
2.969,-0.030975342
2.97,-0.031098203
2.971,-0.030990205
2.972,-0.031098203
2.973,-0.032363496
2.974,-0.033416748
2.975,-0.033401884
2.976,-0.033539608
2.977,-0.033692195
2.978,-0.03317103
2.979,-0.033416748
2.98,-0.033446477
2.981,-0.033156167
2.982,-0.03218118
2.983,-0.031142795
2.984,-0.030960477
2.985,-0.03062557
2.986,-0.028563667
2.987,-0.028258491
2.988,-0.02862706
2.989,-0.026535427
2.99,-0.026092529
2.991,-0.026230251
2.992,-0.026215384
2.993,-0.026137129
2.994,-0.028824245
2.995,-0.028396214
2.996,-0.028686523
2.997,-0.027544073
2.998,-0.025939941
2.999,-0.026215382
3,-0.025910206
3.001,-0.024202004
3.002,-0.023498535
3.003,-0.023621387
3.004,-0.023803711
3.005,-0.023665991
3.006,-0.023513404
3.007,-0.02407915
3.008,-0.023513404
3.009,-0.023956299
3.01,-0.023773973
3.011,-0.023833449
3.012,-0.023606515
3.013,-0.021485154
3.014,-0.021500023
3.015,-0.021209717
3.016,-0.021239456
3.017,-0.021239457
3.018,-0.020949151
3.019,-0.021347434
3.02,-0.021209717
3.021,-0.021224587
3.022,-0.021072
3.023,-0.021072
3.024,-0.021194846
3.025,-0.022352187
3.026,-0.023498535
3.027,-0.023803711
3.028,-0.023680866
3.029,-0.023651123
3.03,-0.023665995
3.031,-0.023926555
3.032,-0.023513407
3.033,-0.023606506
3.034,-0.021622863
3.035,-0.021209717
3.036,-0.021377177
3.037,-0.02008211
3.038,-0.018906025
3.039,-0.019181455
3.04,-0.018891152
3.041,-0.018920898
3.042,-0.018738564
3.043,-0.018798058
3.044,-0.018478009
3.045,-0.018768311
3.046,-0.018738562
3.047,-0.018798059
3.048,-0.021194842
3.049,-0.021500018
3.05,-0.021485143
3.051,-0.02137718
3.052,-0.021086879
3.053,-0.021101754
3.054,-0.021485142
3.055,-0.019974138
3.056,-0.018906023
3.057,-0.019013984
3.058,-0.016617204
3.059,-0.01605148
3.06,-0.01634178
3.061,-0.016356657
3.062,-0.016051481
3.063,-0.014771272
3.064,-0.014313508
3.065,-0.015027997
3.066,-0.016326904
3.067,-0.016282273
3.068,-0.014190674
3.069,-0.013747788
3.07,-0.014268874
3.071,-0.014160918
3.072,-0.014313506
3.073,-0.01387062
3.074,-0.013915254
3.075,-0.014023208
3.076,-0.01387062
3.077,-0.014905175
3.078,-0.016036607
3.079,-0.016557686
3.08,-0.014052965
3.081,-0.01373291
3.082,-0.013900377
3.083,-0.013762669
3.084,-0.014038086
3.085,-0.013870618
3.086,-0.01374779
3.087,-0.01371803
3.088,-0.011872095
3.089,-0.011566919
3.09,-0.011764148
3.091,-0.013610083
3.092,-0.013915259
3.093,-0.013900379
3.094,-0.013870617
3.095,-0.013762672
3.096,-0.014008323
3.097,-0.014008323
3.098,-0.01390038
3.099,-0.014175792
3.1,-0.014023204
3.101,-0.01356544
3.102,-0.011611562
3.103,-0.011183563
3.104,-0.011399445
3.105,-0.009583272
3.106,-0.00897292
3.107,-0.009140391
3.108,-0.009278095
3.109,-0.008864981
3.11,-0.009155273
3.111,-0.008195096
3.112,-0.0066841
3.113,-0.006698983
3.114,-0.006546395
3.115,-0.006792035
3.116,-0.004257577
3.117,-0.003967285
3.118,-0.004257577
3.119,-0.005675521
3.12,-0.006698982
3.121,-0.006438461
3.122,-0.006270989
3.123,-0.006408691
3.124,-0.004395278
3.125,-0.004395278
3.126,-0.004119873
3.127,-0.004090102
3.128,-0.004134759
3.129,-0.004119873
3.13,-0.004119873
3.131,-0.005385235
3.132,-0.006531506
3.133,-0.00627099
3.134,-0.006669207
3.135,-0.004685564
3.136,-0.004119873
3.137,-0.004119873
3.138,-0.003829585
3.139,-0.003829585
3.14,-0.002824732
3.141,-0.001525879
3.142,-0.001678467
3.143,-0.001741727
3.144,0.000502428
3.145,0.000655016
3.146,0.000748051
3.147,0.000915527
3.148,0.000487541
3.149,0.000748051
3.15,0.00064013
3.151,0.000762939
3.152,0.000762939
3.153,0.00074805
3.154,0.00074805
3.155,0.000762939
3.156,-0.000334956
3.157,-0.001388181
3.158,-0.001540769
3.159,-0.001953862
3.16,-0.001831055
3.161,-0.001388182
3.162,-0.001693358
3.163,-0.001693358
3.164,-0.001525879
3.165,-0.001678467
3.166,-0.001403074
3.167,-0.001678467
3.168,-0.001816163
3.169,-0.001648683
3.17,-0.001525879
3.171,-0.001648683
3.172,-0.001295164
3.173,-0.001540771
3.174,-0.001845947
3.175,-0.001618896
3.176,0.000487549
3.177,0.001176024
3.178,0.000640138
3.179,0.001038329
3.18,0.000748046
3.181,0.000502444
3.182,0.000762939
3.183,-0.000517339
3.184,-0.001540773
3.185,-0.001678467
3.186,-0.001496091
3.187,-0.001801266
3.188,-0.001801266
3.189,-0.001373291
3.19,-0.001678467
3.191,-0.001555669
3.192,-0.001678467
3.193,-0.001693362
3.194,-0.00155567
3.195,-0.001723153
3.196,-0.001693362
3.197,-0.001693363
3.198,-0.001663571
3.199,-0.001968747
3.2,-0.001540775
3.201,-0.001633778
3.202,-0.001816158
3.203,-0.001693363
3.204,-0.001816158
3.205,-0.000658661
3.206,0.000595455
3.207,0.000885733
3.208,0.000762939
3.209,0.000655044
3.21,0.00090063
3.211,0.000457764
3.212,0.000472662
3.213,0.000885731
3.214,0.000610352
3.215,0.000442865
3.216,-0.00151098
3.217,-0.001816156
3.218,-0.001540778
3.219,-0.001786358
3.22,-0.003066657
3.221,-0.004075175
3.222,-0.004227763
3.223,-0.004149672
3.224,-0.004011984
3.225,-0.006148215
3.226,-0.006546379
3.227,-0.006546379
3.228,-0.006669167
3.229,-0.00657618
3.23,-0.006698967
3.231,-0.006713867
3.232,-0.006453394
3.233,-0.006713867
3.234,-0.006561279
3.235,-0.006501674
3.236,-0.004547834
3.237,-0.004272461
3.238,-0.003967285
3.239,-0.003967285
3.24,-0.003982187
3.241,-0.005429989
3.242,-0.006423594
3.243,-0.007811787
3.244,-0.009032491
3.245,-0.011306407
3.246,-0.011306407
3.247,-0.011444092
3.248,-0.011399383
3.249,-0.009278055
3.25,-0.007874957
3.251,-0.006698964
3.252,-0.006698964
3.253,-0.006713867
3.254,-0.006475404
3.255,0.007808244
3.256,0.011838693
3.257,0.015303502
3.258,0.019103295
3.259,0.021436828
3.26,0.022750501
3.261,0.022795216
3.262,0.024901636
3.263,0.025039319
3.264,0.025206813
3.265,0.02532959
3.266,0.025177002
3.267,0.025452366
3.268,0.02532959
3.269,0.025590047
3.27,0.02485692
3.271,0.025344496
3.272,0.02528487
3.273,0.023178453
3.274,0.022460234
3.275,0.022583008
3.276,0.021592945
3.277,0.020294189
3.278,0.020264375
3.279,0.018020279
3.28,0.017715103
3.281,0.017015305
3.282,0.015519241
3.283,0.014038086
3.284,0.012984879
3.285,0.012925246
3.286,0.010941603
3.287,0.009676173
3.288,0.008042432
3.289,0.005630843
3.29,0.005738703
3.291,0.003464794
3.292,0.00300703
3.293,0.001053206
3.294,0.00074803
3.295,0.000762939
3.296,0.000870797
3.297,-0.000517404
3.298,-0.001555699
3.299,-0.002943901
3.3,-0.004026927
3.301,-0.006256104
3.302,-0.007566272
3.303,-0.008894831
3.304,-0.011306415
3.305,-0.011488826
3.306,-0.013319881
3.307,-0.01373291
3.308,-0.013885498
3.309,-0.01416085
3.31,-0.013762734
3.311,-0.013855674
3.312,-0.013930235
3.313,-0.013870586
3.314,-0.012757733
3.315,-0.011566854
3.316,-0.011719442
3.317,-0.011306417
3.318,-0.011611593
3.319,-0.011429179
3.32,-0.011429178
3.321,-0.011291504
3.322,-0.011138916
3.323,-0.010286493
3.324,-0.009002686
3.325,-0.008850098
3.326,-0.008909755
3.327,-0.009002686
3.328,-0.008987771
3.329,-0.008987771
3.33,-0.008712425
3.331,-0.009002686
3.332,-0.00898777
3.333,-0.009155273
3.334,-0.009002686
3.335,-0.009155273
3.336,-0.007859992
3.337,-0.006698951
3.338,-0.006698951
3.339,-0.006546363
3.34,-0.006684035
3.341,-0.006285936
3.342,-0.006561279
3.343,-0.006546363
3.344,-0.006408691
3.345,-0.006561279
3.346,-0.00669895
3.347,-0.006851538
3.348,-0.00669895
3.349,-0.006546362
3.35,-0.006438527
3.351,-0.006591115
3.352,-0.006546361
3.353,-0.006546361
3.354,-0.005418573
3.355,-0.004104955
3.356,-0.003844534
3.357,-0.004242623
3.358,-0.003844535
3.359,-0.004119873
3.36,-0.003844536
3.361,-0.003267418
3.362,-0.001678467
3.363,-0.001540798
3.364,-0.003799778
3.365,-0.004104953
3.366,-0.003982205
3.367,-0.006300864
3.368,-0.007841664
3.369,-0.01028307
3.37,-0.012646492
3.371,-0.017544227
3.372,-0.02222969
3.373,-0.028117557
3.374,-0.035746954
3.375,-0.046487793
3.376,-0.058356435
3.377,-0.074240501
3.378,-0.091237447
3.379,-0.10828253
3.38,-0.125677553
3.381,-0.141639597
3.382,-0.154702469
3.383,-0.164988914
3.384,-0.17359689
3.385,-0.175446229
3.386,-0.175554048
3.387,-0.170581696
3.388,-0.162360228
3.389,-0.150261012
3.39,-0.134760091
3.391,-0.114223768
3.392,-0.090925937
3.393,-0.064408835
3.394,-0.03526454
3.395,-0.002383516
3.396,0.032101355
3.397,0.070442354
3.398,0.114127274
3.399,0.159397773
3.4,0.207935659
3.401,0.256916383
3.402,0.305729594
3.403,0.354572656
3.404,0.403538454
3.405,0.450077772
3.406,0.495306832
3.407,0.538139262
3.408,0.581169057
3.409,0.622643121
3.41,0.664727536
3.411,0.705971055
3.412,0.746209488
3.413,0.785409659
3.414,0.823054096
3.415,0.859920666
3.416,0.893218005
3.417,0.922883086
3.418,0.947285541
3.419,0.962900916
3.42,0.966844969
3.421,0.956765856
3.422,0.935395234
3.423,0.899755985
3.424,0.856472409
3.425,0.805221098
3.426,0.748048713
3.427,0.686953828
3.428,0.623782426
3.429,0.559207876
3.43,0.49547091
3.431,0.434145493
3.432,0.374465391
3.433,0.317929919
3.434,0.263883933
3.435,0.211483266
3.436,0.160105925
3.437,0.110727158
3.438,0.065300747
3.439,0.021630739
3.44,-0.021127024
3.441,-0.059322078
3.442,-0.094908206
3.443,-0.126784151
3.444,-0.155473958
3.445,-0.180010751
3.446,-0.201130884
3.447,-0.219627158
3.448,-0.234275599
3.449,-0.24688067
3.45,-0.256709293
3.451,-0.263988717
3.452,-0.269072181
3.453,-0.271986284
3.454,-0.273087526
3.455,-0.271074018
3.456,-0.268249512
3.457,-0.264773113
3.458,-0.259920166
3.459,-0.256165202
3.46,-0.2526888
3.461,-0.24794364
3.462,-0.242923172
3.463,-0.238770181
3.464,-0.235491165
3.465,-0.231736203
3.466,-0.229172077
3.467,-0.22577034
3.468,-0.223038692
3.469,-0.220582351
3.47,-0.218140944
3.471,-0.21695011
3.472,-0.21481388
3.473,-0.214493768
3.474,-0.21249519
3.475,-0.210846594
3.476,-0.209610954
3.477,-0.207366943
3.478,-0.206209212
3.479,-0.204880728
3.48,-0.202439322
3.481,-0.20230167
3.482,-0.200027788
3.483,-0.198762274
3.484,-0.197433794
3.485,-0.196138405
3.486,-0.195130038
3.487,-0.193466508
3.488,-0.19255098
3.489,-0.190369937
3.49,-0.188996645
3.491,-0.186633137
3.492,-0.183656068
3.493,-0.181367249
3.494,-0.178955719
3.495,-0.176637023
3.496,-0.17527867
3.497,-0.173142439
3.498,-0.170563384
3.499,-0.168382336
3.5,-0.166841517
3.501,-0.164444928
3.502,-0.163499521
3.503,-0.161087993
3.504,-0.159379647
3.505,-0.158066115
3.506,-0.156052592
3.507,-0.153641066
3.508,-0.152237894
3.509,-0.150924364
3.51,-0.149368604
3.511,-0.148560842
3.512,-0.146454493
3.513,-0.144638379
3.514,-0.143692969
3.515,-0.142319678
3.516,-0.141266504
3.517,-0.138825097
3.518,-0.13714663
3.519,-0.135940869
3.52,-0.133957226
3.521,-0.13238652
3.522,-0.131072998
3.523,-0.12895171
3.524,-0.127808882
3.525,-0.125214887
3.526,-0.123841595
3.527,-0.121843009
3.528,-0.119278901
3.529,-0.11714267
3.53,-0.115159027
3.531,-0.114090911
3.532,-0.112137156
3.533,-0.110536557
3.534,-0.10925293
3.535,-0.107927617
3.536,-0.106949167
3.537,-0.105393399
3.538,-0.104079886
3.539,-0.104645403
3.54,-0.103227277
3.541,-0.101928711
3.542,-0.102051408
3.543,-0.09976259
3.544,-0.099610001
3.545,-0.097228378
3.546,-0.096878365
3.547,-0.094879776
3.548,-0.09373693
3.549,-0.092300728
3.55,-0.090730009
3.551,-0.089598985
3.552,-0.088333442
3.553,-0.08686735
3.554,-0.087250379
3.555,-0.085404377
3.556,-0.084916719
3.557,-0.082550049
3.558,-0.08220003
3.559,-0.080231335
3.56,-0.079498291
3.561,-0.077789928
3.562,-0.077377009
3.563,-0.076264049
3.564,-0.075073242
3.565,-0.073655105
3.566,-0.072449351
3.567,-0.070343018
3.568,-0.070328069
3.569,-0.069047569
3.57,-0.067734074
3.571,-0.066591212
3.572,-0.065430306
3.573,-0.065538044
3.574,-0.063416763
3.575,-0.062851261
3.576,-0.062836311
3.577,-0.06071503
3.578,-0.060287167
3.579,-0.060119629
3.58,-0.058381359
3.581,-0.057663272
3.582,-0.055374453
3.583,-0.055419307
3.584,-0.054369218
3.585,-0.052810362
3.586,-0.052520138
3.587,-0.050934452
3.588,-0.050521544
3.589,-0.04939362
3.59,-0.048217773
3.591,-0.047074897
3.592,-0.04573151
3.593,-0.043532407
3.594,-0.042192082
3.595,-0.04092346
3.596,-0.039720768
3.597,-0.038437195
3.598,-0.038314514
3.599,-0.038422242
3.6,-0.036256104
3.601,-0.035858154
3.602,-0.036025696
3.603,-0.035828246
3.604,-0.034730222
3.605,-0.033569336
3.606,-0.033554381
3.607,-0.033554381
3.608,-0.033416748
3.609,-0.033677059
3.61,-0.031555783
3.611,-0.031112975
3.612,-0.031112974
3.613,-0.03012267
3.614,-0.028824156
3.615,-0.028563847
3.616,-0.028396304
3.617,-0.026077573
3.618,-0.026245117
3.619,-0.026062617
3.62,-0.024123843
3.621,-0.023498535
3.622,-0.02162261
3.623,-0.02119476
3.624,-0.019028615
3.625,-0.017610452
3.626,-0.016572251
3.627,-0.015169044
3.628,-0.013915413
3.629,-0.013688037
3.63,-0.011886898
3.631,-0.01132142
3.632,-0.011566763
3.633,-0.011566763
3.634,-0.009292903
3.635,-0.009155273
3.636,-0.009125356
3.637,-0.008559881
3.638,-0.006698908
3.639,-0.006531361
3.64,-0.005526077
3.641,-0.004089954
3.642,-0.003129548
3.643,-0.001618628
3.644,0.000487684
3.645,0.000930487
3.646,0.001905856
3.647,0.00346464
3.648,0.003356934
3.649,0.005493164
3.65,0.005783379
3.651,0.005478203
3.652,0.005783379
3.653,0.005660713
3.654,0.00793457
3.655,0.007949532
3.656,0.008209823
3.657,0.009245044
3.658,0.010696114
3.659,0.01193178
3.66,0.012817383
3.661,0.014403111
3.662,0.015549002
3.663,0.016509417
3.664,0.017990408
3.665,0.017897672
3.666,0.020141602
3.667,0.021299496
3.668,0.02291811
3.669,0.025054341
3.67,0.026304972
3.671,0.028898966
3.672,0.030227366
3.673,0.032378561
3.674,0.034942627
3.675,0.036238152
3.676,0.03756655
3.677,0.039427534
3.678,0.040815791
3.679,0.042159153
3.68,0.044142796
3.681,0.045836228
3.682,0.046904344
3.683,0.04931582
3.684,0.051574707
3.685,0.052870239
3.686,0.054228565
3.687,0.05645752
3.688,0.057782986
3.689,0.058928859
3.69,0.061522853
3.691,0.061690408
3.692,0.063644117
3.693,0.064239502
3.694,0.066238112
3.695,0.066513353
3.696,0.066788594
3.697,0.066420635
3.698,0.067671274
3.699,0.069107347
3.7,0.069137282
3.701,0.071135893
3.702,0.072539121
3.703,0.073744856
3.704,0.074980528
3.705,0.076308914
3.706,0.077314254
3.707,0.078765289
3.708,0.078750321
3.709,0.078735352
3.71,0.078490053
3.711,0.081131849
3.712,0.081451994
3.713,0.081329346
3.714,0.081176758
3.715,0.081131847
3.716,0.078857999
3.717,0.078872969
3.718,0.077730001
3.719,0.076539238
3.72,0.074112802
3.721,0.071671396
3.722,0.069122314
3.723,0.06770411
3.724,0.065110115
3.725,0.062668708
3.726,0.061860853
3.727,0.059159186
3.728,0.056900311
3.729,0.055344488
3.73,0.05316334
3.731,0.050461675
3.732,0.048403169
3.733,0.044938564
3.734,0.041246509
3.735,0.039095304
3.736,0.036378667
3.737,0.033036706
3.738,0.029207035
3.739,0.026460452
3.74,0.02388143
3.741,0.020692058
3.742,0.017
3.743,0.014543619
3.744,0.010818766
3.745,0.00697412
3.746,0.004320227
3.747,0.001023191
3.748,-0.002791507
3.749,-0.005583014
3.75,-0.00875741
3.751,-0.01133643
3.752,-0.014875902
3.753,-0.017652436
3.754,-0.021072105
3.755,-0.023543463
3.756,-0.026960301
3.757,-0.030104743
3.758,-0.03225595
3.759,-0.034772239
3.76,-0.037901703
3.761,-0.040495698
3.762,-0.043089693
3.763,-0.045348558
3.764,-0.046934345
3.765,-0.049606042
3.766,-0.051787205
3.767,-0.054366222
3.768,-0.055464293
3.769,-0.057875744
3.77,-0.060119629
3.771,-0.061828052
3.772,-0.062773536
3.773,-0.065155029
3.774,-0.065367531
3.775,-0.06729126
3.776,-0.067626393
3.777,-0.068862076
3.778,-0.07029808
3.779,-0.07019043
3.78,-0.07017545
3.781,-0.070160471
3.782,-0.070313058
3.783,-0.070037842
3.784,-0.07022039
3.785,-0.071180858
3.786,-0.072601875
3.787,-0.070175449
3.788,-0.070328037
3.789,-0.07019043
3.79,-0.069915216
3.791,-0.070160468
3.792,-0.070313055
3.793,-0.070343018
3.794,-0.068757213
3.795,-0.067611417
3.796,-0.067901611
3.797,-0.066620981
3.798,-0.065277653
3.799,-0.065047388
3.8,-0.065307617
3.801,-0.063919344
3.802,-0.062728606
3.803,-0.062758571
3.804,-0.06269864
3.805,-0.062821262
3.806,-0.060302183
3.807,-0.060424805
3.808,-0.059021547
3.809,-0.058091036
3.81,-0.057678223
3.811,-0.057830811
3.812,-0.055832184
3.813,-0.055527008
3.814,-0.053223205
3.815,-0.052933014
3.816,-0.051864898
3.817,-0.05065918
3.818,-0.050521577
3.819,-0.049501154
3.82,-0.048340391
3.821,-0.048217773
3.822,-0.0480502
3.823,-0.046661923
3.824,-0.045578822
3.825,-0.045898983
3.826,-0.045608793
3.827,-0.045898983
3.828,-0.045791354
3.829,-0.044373103
3.83,-0.043747765
3.831,-0.043442589
3.832,-0.040908542
3.833,-0.040848594
3.834,-0.038604736
3.835,-0.038422174
3.836,-0.03602573
3.837,-0.036010742
3.838,-0.034700113
3.839,-0.03340176
3.84,-0.033234184
3.841,-0.031388141
3.842,-0.031112941
3.843,-0.029969884
3.844,-0.028548924
3.845,-0.028548924
3.846,-0.028518947
3.847,-0.026122507
3.848,-0.026092529
3.849,-0.026092529
3.85,-0.026092529
3.851,-0.026200148
3.852,-0.025939941
3.853,-0.026215137
3.854,-0.026382715
3.855,-0.026092529
3.856,-0.02610752
3.857,-0.025969922
3.858,-0.026230127
3.859,-0.025072067
3.86,-0.023926317
3.861,-0.023941308
3.862,-0.02378872
3.863,-0.022385446
3.864,-0.021454927
3.865,-0.021057129
3.866,-0.021484909
3.867,-0.021377297
3.868,-0.021194725
3.869,-0.021224709
3.87,-0.020811923
3.871,-0.021484908
3.872,-0.021332319
3.873,-0.019944035
3.874,-0.019013515
3.875,-0.018630716
3.876,-0.018920898
3.877,-0.018935892
3.878,-0.021087116
3.879,-0.021209717
3.88,-0.021362305
3.881,-0.021209717
3.882,-0.021072123
3.883,-0.021332316
3.884,-0.021209717
3.885,-0.021317321
3.886,-0.021209717
3.887,-0.018875914
3.888,-0.018753316
3.889,-0.020048994
3.89,-0.021087119
3.891,-0.021347309
3.892,-0.021239708
3.893,-0.02145491
3.894,-0.019196083
3.895,-0.01895089
3.896,-0.018645715
3.897,-0.018645715
3.898,-0.018905902
3.899,-0.018920898
3.9,-0.018783307
3.901,-0.018935895
3.902,-0.018783307
3.903,-0.018905901
3.904,-0.019043492
3.905,-0.018920898
3.906,-0.018905901
3.907,-0.017320031
3.908,-0.016617082
3.909,-0.016296908
3.91,-0.016479492
3.911,-0.016219311
3.912,-0.016464494
3.913,-0.016189315
3.914,-0.015183796
3.915,-0.013595321
3.916,-0.013747909
3.917,-0.013655318
3.918,-0.013915497
3.919,-0.014160675
3.92,-0.013885498
3.921,-0.015623964
3.922,-0.016341904
3.923,-0.016189316
3.924,-0.016371905
3.925,-0.016587079
3.926,-0.016341905
3.927,-0.016371906
3.928,-0.016326904
3.929,-0.016464491
3.93,-0.016311903
3.931,-0.016189318
3.932,-0.016464491
3.933,-0.016494494
3.934,-0.016159315
3.935,-0.014450845
3.936,-0.013762914
3.937,-0.014023084
3.938,-0.014038086
3.939,-0.013855494
3.94,-0.013885498
3.941,-0.013885498
3.942,-0.013900501
3.943,-0.014038086
3.944,-0.014175671
3.945,-0.014205677
3.946,-0.013900501
3.947,-0.014023083
3.948,-0.013885498
3.949,-0.013885498
3.95,-0.013870494
3.951,-0.01361033
3.952,-0.01385549
3.953,-0.013595327
3.954,-0.013900502
3.955,-0.014038086
3.956,-0.013900503
3.957,-0.013870493
3.958,-0.01376292
3.959,-0.014008076
3.96,-0.013870493
3.961,-0.013978064
3.962,-0.011719256
3.963,-0.011444092
3.964,-0.011581674
3.965,-0.011384068
3.966,-0.009017692
3.967,-0.009002686
3.968,-0.009002686
3.969,-0.008987679
3.97,-0.006561279
3.971,-0.006713867
3.972,-0.006286117
3.973,-0.006271111
3.974,-0.006438706
3.975,-0.006683852
3.976,-0.006713867
3.977,-0.006468722
3.978,-0.008712518
3.979,-0.009002686
3.98,-0.008987677
3.981,-0.008880114
3.982,-0.009002686
3.983,-0.008835089
3.984,-0.006989026
3.985,-0.00680642
3.986,-0.0064237
3.987,-0.006561279
3.988,-0.006423701
3.989,-0.00645372
3.99,-0.006576289
3.991,-0.005433125
3.992,-0.004257451
3.993,-0.003967285
3.994,-0.005293059
3.995,-0.006698857
3.996,-0.006438712
3.997,-0.006423702
3.998,-0.006713867
3.999,-0.006698856
4,-0.006423702
4.001,-0.006453725
4.002,-0.006561279
4.003,-0.006683844
4.004,-0.006561279
4.005,-0.006561279
4.006,-0.006453727
4.007,-0.006408691
4.008,-0.006438716
4.009,-0.006546267
4.01,-0.006974006
4.011,-0.006698855
4.012,-0.006698854
4.013,-0.006438717
4.014,-0.006438717
4.015,-0.006561279
4.016,-0.006758907
4.017,-0.00869751
4.018,-0.009292848
4.019,-0.007751955
4.02,-0.006851441
4.021,-0.006561279
4.022,-0.006408691
4.023,-0.006591308
4.024,-0.006546265
4.025,-0.005418091
4.026,-0.004104858
4.027,-0.003967285
4.028,-0.004257446
4.029,-0.004089843
4.03,-0.001968627
4.031,-0.001816039
4.032,-0.001403322
4.033,-0.001540895
4.034,-0.001525879
4.035,-0.001678467
4.036,-0.001555911
4.037,-0.001938594
4.038,-0.000382681
4.039,0.000885494
4.04,0.000747923
4.041,0.000777956
4.042,0.000930544
4.043,0.000777957
4.044,0.000915527
4.045,0.000885492
4.046,0.000472781
4.047,0.000885492
4.048,0.001235721
4.049,0.000900509
4.05,0.000792976
4.051,0.000762939
4.052,0.000915527
4.053,0.00062537
4.054,0.000595333
4.055,0.00050282
4.056,0.000777958
4.057,0.000595332
4.058,0.00204372
4.059,0.002914189
4.06,0.003174306
4.061,0.003219365
4.062,0.003234386
4.063,0.005355596
4.064,0.005690813
4.065,0.005630732
4.066,0.005645752
4.067,0.00579834
4.068,0.005783319
4.069,0.005630731
4.07,0.005370618
4.071,0.005493164
4.072,0.005905864
4.073,0.005905863
4.074,0.005523207
4.075,0.005508186
4.076,0.00793457
4.077,0.008072136
4.078,0.00793457
4.079,0.008224724
4.08,0.008087158
4.081,0.008407357
4.082,0.008239746
4.083,0.007949593
4.084,0.008224723
4.085,0.008377311
4.086,0.007949594
4.087,0.008347264
4.088,0.008224722
4.089,0.00793457
4.09,0.008224722
4.091,0.008347262
4.092,0.008087158
4.093,0.007949595
4.094,0.008209697
4.095,0.00796462
4.096,0.007919546
4.097,0.008224721
4.098,0.008087158
4.099,0.00708148
4.1,0.006941582
4.101,0.008392334
4.102,0.008239746
4.103,0.008087158
4.104,0.008087158
4.105,0.009215378
4.106,0.010375977
4.107,0.010666126
4.108,0.010666126
4.109,0.010818714
4.11,0.010513538
4.111,0.010666125
4.112,0.010681152
4.113,0.010803686
4.114,0.010513537
4.115,0.010666125
4.116,0.010391004
4.117,0.011564314
4.118,0.013092503
4.119,0.013137587
4.12,0.012847439
4.121,0.011841742
4.122,0.010406034
4.123,0.010696181
4.124,0.010666124
4.125,0.010253447
4.126,0.009292832
4.127,0.0079496
4.128,0.007919541
4.129,0.008224717
4.13,0.008102188
4.131,0.008269806
4.132,0.010238419
4.133,0.010651092
4.134,0.010956268
4.135,0.010696183
4.136,0.010863801
4.137,0.012847444
4.138,0.012832414
4.139,0.012969971
4.14,0.012969971
4.141,0.012969971
4.142,0.012985002
4.143,0.013230052
4.144,0.012985002
4.145,0.012985003
4.146,0.012877511
4.147,0.01306243
4.148,0.011108852
4.149,0.01066612
4.15,0.010528564
4.151,0.01066612
4.152,0.010528564
4.153,0.010513531
4.154,0.010636053
4.155,0.010528564
4.156,0.010528564
4.157,0.0083773
4.158,0.008072125
4.159,0.008347233
4.16,0.007994706
4.161,0.008239746
4.162,0.006836387
4.163,0.00579834
4.164,0.005645752
4.165,0.005690856
4.166,0.005783305
4.167,0.005508199
4.168,0.005508199
4.169,0.005340576
4.17,0.005630717
4.171,0.005385683
4.172,0.00579834
4.173,0.006651494
4.174,0.007949606
4.175,0.008087158
4.176,0.00822471
4.177,0.008239746
4.178,0.008087158
4.179,0.008102195
4.18,0.007827093
4.181,0.007949607
4.182,0.007842131
4.183,0.008087158
4.184,0.008087158
4.185,0.007964645
4.186,0.006851417
4.187,0.005905814
4.188,0.005645752
4.189,0.005905813
4.19,0.005493164
4.191,0.005768263
4.192,0.006666549
4.193,0.007964648
4.194,0.007797021
4.195,0.007979687
4.196,0.008254785
4.197,0.008087158
4.198,0.007964649
4.199,0.008347215
4.2,0.008087158
4.201,0.00794961
4.202,0.008224706
4.203,0.007827103
4.204,0.008239746
4.205,0.008087158
4.206,0.008072118
4.207,0.008239746
4.208,0.008224705
4.209,0.008209664
4.21,0.008132282
4.211,0.008087158
4.212,0.008239746
4.213,0.0081022
4.214,0.008117242
4.215,0.008072116
4.216,0.00836225
4.217,0.008239746
4.218,0.0081022
4.219,0.007949613
4.22,0.008209661
4.221,0.00793457
4.222,0.007812068
4.223,0.006836369
4.224,0.005783297
4.225,0.005660795
4.226,0.005493164
4.227,0.005523251
4.228,0.005783296
4.229,0.005508208
4.23,0.006073428
4.231,0.004364872
4.232,0.00450027
4.233,0.00579834
4.234,0.005783295
4.235,0.005890749
4.236,0.005645752
4.237,0.005783295
4.238,0.005508209
4.239,0.005523255
4.24,0.0055383
4.241,0.005645752
4.242,0.005935882
4.243,0.005493164
4.244,0.005645752
4.245,0.00579834
4.246,0.005645752
4.247,0.005783293
4.248,0.005920835
4.249,0.005645752
4.25,0.005675846
4.251,0.005768246
4.252,0.005920833
4.253,0.005753198
4.254,0.003341886
4.255,0.003174251
4.256,0.00289917
4.257,0.001923451
4.258,0.000472812
4.259,0.000900479
4.26,0.000610352
4.261,0.000915527
4.262,0.000915527
4.263,0.000747891
4.264,0.000595303
4.265,0.001891251
4.266,0.003066807
4.267,0.002516653
4.268,0.003189296
4.269,0.003174246
4.27,0.003036708
4.271,0.003204346
4.272,0.005325526
4.273,0.00578329
4.274,0.005630702
4.275,0.003494471
4.276,0.003066808
4.277,0.003234447
4.278,0.003144142
4.279,0.000930578
4.28,0.000747888
4.281,0.001022961
4.282,-0.001373291
4.283,-0.001648364
4.284,0.000640455
4.285,0.000762939
4.286,0.001891263
4.287,0.003479417
4.288,0.005660804
4.289,0.006774077
4.29,0.009138159
4.291,0.013122559
4.292,0.016249581
4.293,0.019163805
4.294,0.021300036
4.295,0.02493204
4.296,0.0273885
4.297,0.029647212
4.298,0.031340733
4.299,0.032761235
4.3,0.032486167
4.301,0.032608646
4.302,0.030349936
4.303,0.030349936
4.304,0.028809002
4.305,0.027786051
4.306,0.02749593
4.307,0.026627606
4.308,0.025161947
4.309,0.025177002
4.31,0.025299479
4.311,0.02532959
4.312,0.025207114
4.313,0.025299478
4.314,0.025192058
4.315,0.025192058
4.316,0.025421952
4.317,0.023315834
4.318,0.021302078
4.319,0.020554195
4.32,0.0179602
4.321,0.015716553
4.322,0.014405506
4.323,0.012924799
4.324,0.010956213
4.325,0.010788567
4.326,0.008087158
4.327,0.008224688
4.328,0.008057042
4.329,0.006058341
4.33,0.005768223
4.331,0.00566081
4.332,0.005783281
4.333,0.005645752
4.334,0.005645752
4.335,0.005813399
4.336,0.004349753
4.337,0.003509521
4.338,0.001785876
4.339,0.000885408
4.34,-0.001220703
4.341,-0.003096938
4.342,-0.004149993
4.343,-0.005538345
4.344,-0.006668686
4.345,-0.006546219
4.346,-0.006316346
4.347,-0.006423752
4.348,-0.006133638
4.349,-0.006438814
4.35,-0.006286226
4.351,-0.006668683
4.352,-0.006438814
4.353,-0.006668682
4.354,-0.004302585
4.355,-0.003967285
4.356,-0.004425049
4.357,-0.004134935
4.358,-0.004212211
4.359,-0.001815992
4.36,-0.001556004
4.361,-0.001800929
4.362,-0.001403417
4.363,-0.001663404
4.364,-0.001540942
4.365,-0.001525879
4.366,-0.001633276
4.367,0.000350367
4.368,0.000747876
4.369,0.000900463
4.37,0.000900463
4.371,0.000793068
4.372,0.000762939
4.373,0.000778004
4.374,0.000640481
4.375,0.001998707
4.376,0.003066823
4.377,0.003479391
4.378,0.003326803
4.379,0.003204346
4.38,0.003219411
4.381,0.003204346
4.382,0.003066824
4.383,0.003204346
4.384,0.00318928
4.385,0.003036692
4.386,0.003204346
4.387,0.003326801
4.388,0.00289917
4.389,0.003219413
4.39,0.004317662
4.391,0.005645752
4.392,0.005615617
4.393,0.005783272
4.394,0.005630684
4.395,0.005478096
4.396,0.005768204
4.397,0.00579834
4.398,0.005950928
4.399,0.005645752
4.4,0.005783271
4.401,0.005660821
4.402,0.005905722
4.403,0.003601834
4.404,0.000595283
4.405,-0.001296049
4.406,-0.004988297
4.407,-0.00988618
4.408,-0.015089239
4.409,-0.021848317
4.41,-0.03045352
4.411,-0.041392752
4.412,-0.053722234
4.413,-0.069406765
4.414,-0.086588919
4.415,-0.103616601
4.416,-0.121974246
4.417,-0.138773988
4.418,-0.152569064
4.419,-0.164868401
4.42,-0.17335304
4.421,-0.178878222
4.422,-0.18022137
4.423,-0.179032682
4.424,-0.174379685
4.425,-0.165789545
4.426,-0.153111542
4.427,-0.137197181
4.428,-0.116614748
4.429,-0.091194717
4.43,-0.060999242
4.431,-0.026941989
4.432,0.008731581
4.433,0.05050867
4.434,0.095627621
4.435,0.145629386
4.436,0.198637691
4.437,0.25286855
4.438,0.304350977
4.439,0.356598192
4.44,0.407409971
4.441,0.457276074
4.442,0.506241724
4.443,0.553926372
4.444,0.600328176
4.445,0.64669983
4.446,0.690767591
4.447,0.733919824
4.448,0.775210851
4.449,0.816852279
4.45,0.857333306
4.451,0.896382571
4.452,0.929586436
4.453,0.957208507
4.454,0.974392465
4.455,0.98046948
4.456,0.972630838
4.457,0.951469991
4.458,0.916866328
4.459,0.872024194
4.46,0.817964656
4.461,0.758074803
4.462,0.694873248
4.463,0.63112165
4.464,0.569841614
4.465,0.51007238
4.466,0.452714398
4.467,0.396057235
4.468,0.342316129
4.469,0.288512904
4.47,0.238158889
4.471,0.1892234
4.472,0.14143142
4.473,0.098324432
4.474,0.056835595
4.475,0.019084263
4.476,-0.017751539
4.477,-0.050024782
4.478,-0.080894574
4.479,-0.10692679
4.48,-0.13115811
4.481,-0.151894989
4.482,-0.170390075
4.483,-0.185451039
4.484,-0.198680948
4.485,-0.207868167
4.486,-0.215101903
4.487,-0.218978704
4.488,-0.220839921
4.489,-0.220627009
4.49,-0.2196964
4.491,-0.218017933
4.492,-0.216659723
4.493,-0.214798505
4.494,-0.21237218
4.495,-0.210953643
4.496,-0.208512236
4.497,-0.207169108
4.498,-0.204925537
4.499,-0.204437608
4.5,-0.20259147
4.501,-0.202148789
4.502,-0.200027642
4.503,-0.199829804
4.504,-0.197433647
4.505,-0.197173722
4.506,-0.196442701
4.507,-0.194717232
4.508,-0.194549561
4.509,-0.192978429
4.51,-0.192550834
4.511,-0.191147374
4.512,-0.189987008
4.513,-0.190124512
4.514,-0.188705966
4.515,-0.18737793
4.516,-0.187362845
4.517,-0.185516705
4.518,-0.184936523
4.519,-0.183350303
4.52,-0.182632619
4.521,-0.180603719
4.522,-0.180038625
4.523,-0.17791748
4.524,-0.176773934
4.525,-0.175323486
4.526,-0.173904936
4.527,-0.172989408
4.528,-0.171723444
4.529,-0.170440674
4.53,-0.170395413
4.531,-0.168304443
4.532,-0.167816505
4.533,-0.166260451
4.534,-0.165390186
4.535,-0.163284131
4.536,-0.163269043
4.537,-0.162994043
4.538,-0.163118161
4.539,-0.154618503
4.54,-0.152054684
4.541,-0.149888276
4.542,-0.148300341
4.543,-0.146179199
4.544,-0.146026611
4.545,-0.146118842
4.546,-0.143447707
4.547,-0.142441642
4.548,-0.141281297
4.549,-0.13888516
4.55,-0.13740624
4.551,-0.136383394
4.552,-0.134827334
4.553,-0.133911807
4.554,-0.131408355
4.555,-0.131210495
4.556,-0.129074265
4.557,-0.127930695
4.558,-0.126602676
4.559,-0.124328948
4.56,-0.122787978
4.561,-0.12127719
4.562,-0.119308639
4.563,-0.119003463
4.564,-0.11804266
4.565,-0.116867232
4.566,-0.116562056
4.567,-0.114410733
4.568,-0.113998247
4.569,-0.113007256
4.57,-0.111571934
4.571,-0.110550756
4.572,-0.109070156
4.573,-0.107254194
4.574,-0.105850716
4.575,-0.104187342
4.576,-0.10224898
4.577,-0.100785127
4.578,-0.099717011
4.579,-0.097290698
4.58,-0.094894574
4.581,-0.093598399
4.582,-0.092392789
4.583,-0.09004195
4.584,-0.088303104
4.585,-0.087295368
4.586,-0.086121588
4.587,-0.084853962
4.588,-0.08497636
4.589,-0.084778485
4.59,-0.082825033
4.591,-0.082137573
4.592,-0.082397461
4.593,-0.080993978
4.594,-0.079848756
4.595,-0.079910766
4.596,-0.077957316
4.597,-0.076111164
4.598,-0.074768066
4.599,-0.073807248
4.6,-0.072586545
4.601,-0.070465411
4.602,-0.068756749
4.603,-0.06756624
4.604,-0.065307617
4.605,-0.065552402
4.606,-0.064286404
4.607,-0.062698525
4.608,-0.062591232
4.609,-0.062423546
4.61,-0.06072998
4.611,-0.060302414
4.612,-0.059158805
4.613,-0.057830811
4.614,-0.057815711
4.615,-0.057968299
4.616,-0.057800612
4.617,-0.055816969
4.618,-0.055664381
4.619,-0.054398378
4.62,-0.053040186
4.621,-0.050781567
4.622,-0.050506592
4.623,-0.0491031
4.624,-0.048355261
4.625,-0.048034984
4.626,-0.045944056
4.627,-0.045898753
4.628,-0.044662949
4.629,-0.042922501
4.63,-0.043732319
4.631,-0.041015939
4.632,-0.040465994
4.633,-0.039765032
4.634,-0.038574532
4.635,-0.038162075
4.636,-0.038177177
4.637,-0.038254253
4.638,-0.036300815
4.639,-0.035750875
4.64,-0.035690464
4.641,-0.033844306
4.642,-0.033401645
4.643,-0.031005548
4.644,-0.030945135
4.645,-0.028808904
4.646,-0.028549039
4.647,-0.028626108
4.648,-0.026397705
4.649,-0.026092529
4.65,-0.026092529
4.651,-0.026092529
4.652,-0.023818816
4.653,-0.023803711
4.654,-0.023651123
4.655,-0.02237
4.656,-0.02137741
4.657,-0.021011813
4.658,-0.019058381
4.659,-0.018508451
4.66,-0.01750229
4.661,-0.01634201
4.662,-0.016464386
4.663,-0.015305634
4.664,-0.013748016
4.665,-0.012756957
4.666,-0.011581573
4.667,-0.011428985
4.668,-0.009430235
4.669,-0.009079738
4.67,-0.006515958
4.671,-0.006531065
4.672,-0.004409941
4.673,-0.004394834
4.674,-0.002976219
4.675,-0.001525879
4.676,-0.001633143
4.677,0.000732723
4.678,0.000640568
4.679,0.002884061
4.68,0.003234563
4.681,0.005508273
4.682,0.0055536
4.683,0.0078122
4.684,0.008117377
4.685,0.010604111
4.686,0.013107449
4.687,0.014251112
4.688,0.016707629
4.689,0.017608047
4.69,0.020034344
4.691,0.022873073
4.692,0.023986519
4.693,0.026320669
4.694,0.027786107
4.695,0.029662494
4.696,0.032363744
4.697,0.034057322
4.698,0.036376363
4.699,0.037139303
4.7,0.039932693
4.701,0.039703075
4.702,0.041946558
4.703,0.041854418
4.704,0.044128124
4.705,0.044723364
4.706,0.046737231
4.707,0.046584644
4.708,0.048370361
4.709,0.049453589
4.71,0.051604933
4.711,0.052993337
4.712,0.055327496
4.713,0.056365385
4.714,0.0590364
4.715,0.060180083
4.716,0.061690849
4.717,0.063857308
4.718,0.066513206
4.719,0.067672006
4.72,0.06901507
4.721,0.071288774
4.722,0.073699951
4.723,0.073897883
4.724,0.076003884
4.725,0.076216933
4.726,0.078307818
4.727,0.078765582
4.728,0.081039285
4.729,0.082412577
4.73,0.083510923
4.731,0.08595233
4.732,0.088363505
4.733,0.089507201
4.734,0.09114032
4.735,0.093216085
4.736,0.093383789
4.737,0.094664959
4.738,0.095840312
4.739,0.095855429
4.74,0.098129131
4.741,0.098281719
4.742,0.099425422
4.743,0.10069289
4.744,0.100723126
4.745,0.100448186
4.746,0.10069289
4.747,0.100738244
4.748,0.100708008
4.749,0.100570538
4.75,0.100708008
4.751,0.100860596
4.752,0.100952708
4.753,0.098571777
4.754,0.098083775
4.755,0.096222482
4.756,0.094559134
4.757,0.093491018
4.758,0.091079851
4.759,0.089813788
4.76,0.087234913
4.761,0.085068442
4.762,0.08233698
4.763,0.079957438
4.764,0.076156478
4.765,0.073990006
4.766,0.070557468
4.767,0.067673418
4.768,0.06445395
4.769,0.060593888
4.77,0.056747574
4.771,0.053284789
4.772,0.048386853
4.773,0.044632642
4.774,0.041245464
4.775,0.036927635
4.776,0.031754768
4.777,0.026627268
4.778,0.02182143
4.779,0.017121449
4.78,0.012101171
4.781,0.007203234
4.782,0.002305297
4.783,-0.002562393
4.784,-0.007490577
4.785,-0.012160309
4.786,-0.016890535
4.787,-0.020110005
4.788,-0.024809983
4.789,-0.029295529
4.79,-0.033019482
4.791,-0.036879553
4.792,-0.041640028
4.793,-0.046370254
4.794,-0.049391763
4.795,-0.053847063
4.796,-0.057723598
4.797,-0.061370583
4.798,-0.064177667
4.799,-0.067779275
4.8,-0.071181586
4.801,-0.073760455
4.802,-0.076109778
4.803,-0.079451587
4.804,-0.082152791
4.805,-0.084579071
4.806,-0.086745555
4.807,-0.089141582
4.808,-0.091125225
4.809,-0.092330801
4.81,-0.094329571
4.811,-0.095900832
4.812,-0.097183359
4.813,-0.098311985
4.814,-0.099349845
4.815,-0.099380101
4.816,-0.101791251
4.817,-0.102066171
4.818,-0.101791251
4.819,-0.102218758
4.82,-0.101638664
4.821,-0.101913582
4.822,-0.102218758
4.823,-0.10206617
4.824,-0.102081299
4.825,-0.10195897
4.826,-0.101913581
4.827,-0.101668924
4.828,-0.101958971
4.829,-0.101668925
4.83,-0.101395297
4.831,-0.099624762
4.832,-0.099502435
4.833,-0.098511255
4.834,-0.096923572
4.835,-0.097061029
4.836,-0.097183355
4.837,-0.094894537
4.838,-0.094589361
4.839,-0.094726817
4.84,-0.093598176
4.841,-0.092163086
4.842,-0.092270278
4.843,-0.090011723
4.844,-0.089569092
4.845,-0.088577903
4.846,-0.087372332
4.847,-0.087280273
4.848,-0.087432861
4.849,-0.085983906
4.85,-0.084854
4.851,-0.084838867
4.852,-0.083695086
4.853,-0.08227514
4.854,-0.082779557
4.855,-0.080246097
4.856,-0.079818601
4.857,-0.078827403
4.858,-0.077652102
4.859,-0.076416265
4.86,-0.074950923
4.861,-0.07490552
4.862,-0.072784424
4.863,-0.072586431
4.864,-0.07048047
4.865,-0.070037842
4.866,-0.070297612
4.867,-0.068146245
4.868,-0.067321531
4.869,-0.067611571
4.87,-0.067489255
4.871,-0.067733887
4.872,-0.066284916
4.873,-0.065704836
4.874,-0.065170166
4.875,-0.065277344
4.876,-0.063416016
4.877,-0.062896485
4.878,-0.061890136
4.879,-0.060104492
4.88,-0.057983398
4.881,-0.056702146
4.882,-0.055206541
4.883,-0.053512936
4.884,-0.051804193
4.885,-0.05079663
4.886,-0.049515374
4.887,-0.048172359
4.888,-0.048050047
4.889,-0.047241692
4.89,-0.045623779
4.891,-0.046173575
4.892,-0.045898677
4.893,-0.045806646
4.894,-0.04560864
4.895,-0.043212652
4.896,-0.043182373
4.897,-0.043457269
4.898,-0.043014645
4.899,-0.042313453
4.9,-0.040603519
4.901,-0.04061866
4.902,-0.040588379
4.903,-0.040756107
4.904,-0.040725826
4.905,-0.038727042
4.906,-0.038192396
4.907,-0.038421866
4.908,-0.038544171
4.909,-0.038452148
4.91,-0.038192397
4.911,-0.038299561
4.912,-0.038299561
4.913,-0.038254134
4.914,-0.036423079
4.915,-0.036102761
4.916,-0.035735851
4.917,-0.035750994
4.918,-0.03485177
4.919,-0.033294446
4.92,-0.033386462
4.921,-0.033279303
4.922,-0.03321873
4.923,-0.031280518
4.924,-0.030975342
4.925,-0.030960198
4.926,-0.031097642
4.927,-0.030975342
4.928,-0.031097641
4.929,-0.028823967
4.93,-0.028671379
4.931,-0.028396492
4.932,-0.028381348
4.933,-0.027390096
4.934,-0.025787354
4.935,-0.025802499
4.936,-0.026092529
4.937,-0.025802499
4.938,-0.025970233
4.939,-0.026245117
4.94,-0.026199679
4.941,-0.026229971
4.942,-0.026077383
4.943,-0.026229971
4.944,-0.026092529
4.945,-0.025970235
4.946,-0.026245117
4.947,-0.026214823
4.948,-0.026077382
4.949,-0.026107676
4.95,-0.02622997
4.951,-0.025970236
4.952,-0.026107677
4.953,-0.024673795
4.954,-0.024033147
4.955,-0.023635975
4.956,-0.023926002
4.957,-0.023926002
4.958,-0.022675002
4.959,-0.021332007
4.96,-0.021209717
4.961,-0.021209717
4.962,-0.021072278
4.963,-0.02104198
4.964,-0.021347155
4.965,-0.021194567
4.966,-0.021072279
4.967,-0.021347155
4.968,-0.021499743
4.969,-0.021194567
4.97,-0.021209717
4.971,-0.020949992
4.972,-0.01988296
4.973,-0.018798612
4.974,-0.018585421
4.975,-0.018615723
4.976,-0.018768311
4.977,-0.018920898
4.978,-0.018753159
4.979,-0.019028032
4.98,-0.018615723
4.981,-0.018920898
4.982,-0.019043182
4.983,-0.018890594
4.984,-0.01902803
4.985,-0.018905746
4.986,-0.018905746
4.987,-0.018768311
4.988,-0.018783463
4.989,-0.018798616
4.99,-0.018753157
4.991,-0.018615723
4.992,-0.018798617
4.993,-0.018890591
4.994,-0.019028025
4.995,-0.018783464
4.996,-0.018936052
4.997,-0.019028024
4.998,-0.018463135
4.999,-0.016616926
5,-0.016357213
5.001,-0.016616925
5.002,-0.016326904
5.003,-0.016326904
5.004,-0.016174316
5.005,-0.016174316
5.006,-0.016204627
5.007,-0.01605204
5.008,-0.016326904
5.009,-0.016326904
5.01,-0.016326904
5.011,-0.01634206
5.012,-0.016281436
5.013,-0.014175517
5.014,-0.013595479
5.015,-0.013885498
5.016,-0.013748067
5.017,-0.013900655
5.018,-0.013885498
5.019,-0.013625794
5.02,-0.014007771
5.021,-0.013610637
5.022,-0.013900656
5.023,-0.01387034
5.024,-0.013610638
5.025,-0.01387034
5.026,-0.01387034
5.027,-0.01413004
5.028,-0.011901855
5.029,-0.01133698
5.03,-0.011749268
5.031,-0.011459251
5.032,-0.011581521
5.033,-0.011291504
5.034,-0.011428932
5.035,-0.011444092
5.036,-0.011169235
5.037,-0.010315337
5.038,-0.009124954
5.039,-0.009140113
5.04,-0.008742991
5.041,-0.007721341
5.042,-0.006561279
5.043,-0.006546119
5.044,-0.006729028
5.045,-0.006500635
5.046,-0.004394727
5.047,-0.004119873
5.048,-0.00384502
5.049,-0.003982447
5.05,-0.004119873
5.051,-0.003997609
5.052,-0.004394725
5.053,-0.004242137
5.054,-0.003860184
5.055,-0.006408691
5.056,-0.006271266
5.057,-0.006408691
5.058,-0.006530954
5.059,-0.005249598
5.06,-0.004257298
5.061,-0.003829861
5.062,-0.005233479
5.063,-0.006423855
5.064,-0.006530952
5.065,-0.006561279
5.066,-0.00540218
5.067,-0.003967285
5.068,-0.004104709
5.069,-0.004135037
5.07,-0.003967285
5.071,-0.004104708
5.072,-0.003845027
5.073,-0.003707604
5.074,-0.004226966
5.075,-0.001800724
5.076,-0.001648136
5.077,-0.0012662
5.078,-0.000137422
5.079,0.000778105
5.08,0.000610352
5.081,0.000930693
5.082,0.001052949
5.083,0.00047293
5.084,0.001052949
5.085,0.000640685
5.086,0.000625518
5.087,0.000778106
5.088,0.000488098
5.089,0.000640686
5.09,0.000762939
5.091,0.000610352
5.092,0.00090036
5.093,0.000625519
5.094,-7.58E-05
5.095,-0.001678467
5.096,-0.001541047
5.097,-0.001678467
5.098,-0.003952117
5.099,-0.003997623
5.1,-0.004119873
5.101,-0.004135042
5.102,-0.003845036
5.103,-0.004089534
5.104,-0.003128499
5.105,-0.00149554
5.106,-0.001556218
5.107,-0.001663297
5.108,-0.000274836
5.109,0.000762939
5.11,0.000885187
5.111,0.000930698
5.112,0.000900357
5.113,0.000625522
5.114,0.000900356
5.115,0.001022602
5.116,0.000930699
5.117,0.000610352
5.118,0.000930699
5.119,0.000930699
5.12,0.0010226
5.121,0.000900355
5.122,0.000747767
5.123,0.000885183
5.124,0.000762939
5.125,0.000762939
5.126,0.000762939
5.127,0.000671043
5.128,0.0009307
5.129,0.00048811
5.13,0.000778113
5.131,0.000915527
5.132,0.000747766
5.133,0.000900354
5.134,0.000762939
5.135,0.000778113
5.136,0.000915527
5.137,0.000610352
5.138,0.000503287
5.139,0.000885178
5.14,0.000747765
5.141,0.000747765
5.142,0.000900352
5.143,0.000900352
5.144,0.000870002
5.145,0.000762939
5.146,0.002196932
5.147,0.003234697
5.148,0.003219521
5.149,0.00308211
5.15,0.003219522
5.151,0.00318917
5.152,0.00337211
5.153,0.003234699
5.154,0.003494345
5.155,0.003204346
5.156,0.003341757
5.157,0.003219523
5.158,0.003051758
5.159,0.00309729
5.16,0.003219523
5.161,0.003296223
5.162,0.003616576
5.163,0.003219524
5.164,0.002929526
5.165,0.003219524
5.166,0.003326577
5.167,0.003356934
5.168,0.003219524
5.169,0.004500943
5.17,0.005508343
5.171,0.005660931
5.172,0.005493164
5.173,0.005645752
5.174,0.005676111
5.175,0.00579834
5.176,0.005752801
5.177,0.005508344
5.178,0.00579834
5.179,0.005355756
5.18,0.005920567
5.181,0.005508345
5.182,0.005783159
5.183,0.005645752
5.184,0.005508345
5.185,0.005737616
5.186,0.003356934
5.187,0.00331139
5.188,0.00324989
5.189,0.002929533
5.19,0.002959897
5.191,0.003433612
5.192,0.001190339
5.193,0.000885163
5.194,0.000915527
5.195,0.000900345
5.196,0.000869979
5.197,0.000640717
5.198,0.001037749
5.199,0.000900344
5.2,0.000793306
5.201,0.002669911
5.202,0.003219529
5.203,0.003356934
5.204,0.00434838
5.205,0.005630568
5.206,0.00579834
5.207,0.005783156
5.208,0.00579834
5.209,0.005676121
5.21,0.005630567
5.211,0.005676122
5.212,0.005920558
5.213,0.005630567
5.214,0.005523535
5.215,0.005966113
5.216,0.005676123
5.217,0.005767969
5.218,0.005783154
5.219,0.006789797
5.22,0.008087158
5.221,0.008636765
5.222,0.008239746
5.223,0.007964943
5.224,0.007949757
5.225,0.008239746
5.226,0.008224559
5.227,0.008056784
5.228,0.005660939
5.229,0.005660939
5.23,0.005630564
5.231,0.005508352
5.232,0.005508352
5.233,0.005508352
5.234,0.005813528
5.235,0.007674959
5.236,0.008224558
5.237,0.007949759
5.238,0.00781236
5.239,0.00781236
5.24,0.00805678
5.241,0.007980138
5.242,0.007980138
5.243,0.008071969
5.244,0.008361955
5.245,0.008224556
5.246,0.008087158
5.247,0.008361954
5.248,0.01078817
5.249,0.010375977
5.25,0.010528564
5.251,0.010391167
5.252,0.010543755
5.253,0.010650771
5.254,0.010482992
5.255,0.00851454
5.256,0.008377143
5.257,0.008254937
5.258,0.010131567
5.259,0.010513373
5.26,0.010558948
5.261,0.010696344
5.262,0.010558949
5.263,0.012679987
5.264,0.012969971
5.265,0.013122559
5.266,0.012847768
5.267,0.013122559
5.268,0.011703689
5.269,0.010665959
5.27,0.010665959
5.271,0.009109693
5.272,0.008209359
5.273,0.006210522
5.274,0.004409855
5.275,0.003066952
5.276,0.001037727
5.277,0.000900333
5.278,-0.00064074
5.279,-0.001663272
5.28,-0.001693661
5.281,-0.001541074
5.282,-0.001648077
5.283,0.000320371
5.284,0.000655937
5.285,0.000762939
5.286,0.000778135
5.287,0.000625547
5.288,0.002059622
5.289,0.003066954
5.29,0.003326541
5.291,0.003356934
5.292,0.003051758
5.293,0.003219542
5.294,0.003479128
5.295,0.002746582
5.296,0.000915527
5.297,0.000732545
5.298,-0.001388488
5.299,-0.001571471
5.3,-0.003829895
5.301,-0.004242066
5.302,-0.003845093
5.303,-0.003128356
5.304,-0.001648071
5.305,-0.001907651
5.306,0.000793336
5.307,0.003112552
5.308,0.005096195
5.309,0.007949769
5.31,0.011367499
5.311,0.01425147
5.312,0.016692877
5.313,0.018996896
5.314,0.020339788
5.315,0.022735596
5.316,0.022888184
5.317,0.022750796
5.318,0.025039614
5.319,0.025039614
5.32,0.025253588
5.321,0.023040771
5.322,0.023040771
5.323,0.022888184
5.324,0.022750797
5.325,0.022720395
5.326,0.022827378
5.327,0.023010369
5.328,0.022750797
5.329,0.022903385
5.33,0.021454085
5.331,0.020309391
5.332,0.020263785
5.333,0.020294189
5.334,0.01913486
5.335,0.017990169
5.336,0.017684993
5.337,0.015670944
5.338,0.014129862
5.339,0.012985174
5.34,0.011841042
5.341,0.010574175
5.342,0.009247047
5.343,0.008102362
5.344,0.006958227
5.345,0.005645752
5.346,0.005645752
5.347,0.005615343
5.348,0.005920519
5.349,0.003326524
5.35,0.003204346
5.351,0.003051758
5.352,0.003189141
5.353,0.00105291
5.354,0.000640762
5.355,0.000762939
5.356,-0.000488175
5.357,-0.001525879
5.358,-0.001815849
5.359,-0.001663261
5.36,-0.001541085
5.361,-0.00195323
5.362,-0.001403704
5.363,-0.001541086
5.364,-0.001541086
5.365,-0.001693674
5.366,-0.001785434
5.367,0.000625559
5.368,0.000885113
5.369,0.001052908
5.37,0.000915527
5.371,0.000640767
5.372,0.000488179
5.373,0.000915527
5.374,0.000915527
5.375,0.00062556
5.376,0.000640769
5.377,0.000610352
5.378,0.000930736
5.379,-0.000243841
5.38,-0.000549515
5.381,0.000900318
5.382,0.000610352
5.383,0.000900318
5.384,0.000793359
5.385,0.000610352
5.386,0.000915527
5.387,0.000503394
5.388,0.000930738
5.389,0.000503395
5.39,0.000625562
5.391,0.000930738
5.392,0.000625562
5.393,0.00077815
5.394,0.000595141
5.395,0.000900316
5.396,0.000625563
5.397,0.001052904
5.398,0.000869892
5.399,0.000900316
5.4,0.000930739
5.401,0.003219558
5.402,0.003341721
5.403,0.002929595
5.404,0.003189133
5.405,0.003219558
5.406,0.003204346
5.407,0.003204346
5.408,0.004470688
5.409,0.00579834
5.41,0.005538804
5.411,0.005783126
5.412,0.005966141
5.413,0.00793457
5.414,0.008239746
5.415,0.008071944
5.416,0.008239746
5.417,0.008071944
5.418,0.007964999
5.419,0.007065128
5.42,0.00576791
5.421,0.004104658
5.422,0.003296073
5.423,-0.000366037
5.424,-0.002990462
5.425,-0.00849841
5.426,-0.015090554
5.427,-0.02300948
5.428,-0.034163615
5.429,-0.046431513
5.43,-0.061918974
5.431,-0.078901883
5.432,-0.097014197
5.433,-0.114363571
5.434,-0.131850314
5.435,-0.146208796
5.436,-0.157851547
5.437,-0.166167797
5.438,-0.171310135
5.439,-0.172576904
5.44,-0.169555993
5.441,-0.163345952
5.442,-0.153961998
5.443,-0.139512207
5.444,-0.122208899
5.445,-0.099916248
5.446,-0.07437319
5.447,-0.044878065
5.448,-0.013811403
5.449,0.020642632
5.45,0.05897264
5.451,0.101376468
5.452,0.145779555
5.453,0.193310497
5.454,0.243282847
5.455,0.293179489
5.456,0.340359597
5.457,0.38876041
5.458,0.434262438
5.459,0.479443684
5.46,0.522595627
5.461,0.566235773
5.462,0.608212674
5.463,0.651822379
5.464,0.693463662
5.465,0.733731653
5.466,0.775189905
5.467,0.814527146
5.468,0.85140776
5.469,0.887052447
5.47,0.919920107
5.471,0.946119932
5.472,0.962874891
5.473,0.966690318
5.474,0.957017115
5.475,0.93336671
5.476,0.897707524
5.477,0.854312019
5.478,0.801730434
5.479,0.743991661
5.48,0.682239221
5.481,0.619495137
5.482,0.557086675
5.483,0.494510402
5.484,0.43419215
5.485,0.377185162
5.486,0.32092589
5.487,0.267626687
5.488,0.215243355
5.489,0.164904564
5.49,0.115755686
5.491,0.07062011
5.492,0.026995188
5.493,-0.014066525
5.494,-0.051847429
5.495,-0.086393535
5.496,-0.117262305
5.497,-0.144529866
5.498,-0.168211775
5.499,-0.188735015
5.5,-0.204970566
5.501,-0.219420739
5.502,-0.230986969
5.503,-0.240676463
5.504,-0.248183725
5.505,-0.253295898
5.506,-0.255889893
5.507,-0.256012026
5.508,-0.254623507
5.509,-0.252426366
5.51,-0.248153904
5.511,-0.245102145
5.512,-0.240356692
5.513,-0.235351746
5.514,-0.230881012
5.515,-0.22558612
5.516,-0.222107054
5.517,-0.218414487
5.518,-0.214782835
5.519,-0.211242855
5.52,-0.208511501
5.521,-0.205947964
5.522,-0.203506558
5.523,-0.201492456
5.524,-0.199737549
5.525,-0.197509939
5.526,-0.195373708
5.527,-0.192810173
5.528,-0.190994348
5.529,-0.190094051
5.53,-0.190200947
5.531,-0.187835693
5.532,-0.187423622
5.533,-0.186126765
5.534,-0.185089111
5.535,-0.185089111
5.536,-0.183807482
5.537,-0.182662937
5.538,-0.181335612
5.539,-0.180481011
5.54,-0.179199379
5.541,-0.177764893
5.542,-0.175582965
5.543,-0.173172023
5.544,-0.171661377
5.545,-0.170394976
5.546,-0.168090924
5.547,-0.165710449
5.548,-0.164550935
5.549,-0.16195694
5.55,-0.160614115
5.551,-0.158370997
5.552,-0.156829884
5.553,-0.155914356
5.554,-0.153625538
5.555,-0.152221778
5.556,-0.150787305
5.557,-0.149520898
5.558,-0.148437548
5.559,-0.146316552
5.56,-0.145965672
5.561,-0.143585205
5.562,-0.142440914
5.563,-0.141113328
5.564,-0.13882451
5.565,-0.137405511
5.566,-0.136215279
5.567,-0.133972168
5.568,-0.132415817
5.569,-0.12997441
5.57,-0.129196234
5.571,-0.127929821
5.572,-0.126449652
5.573,-0.124481245
5.574,-0.122894419
5.575,-0.121704189
5.576,-0.119598432
5.577,-0.117721665
5.578,-0.116546674
5.579,-0.11442568
5.58,-0.113006676
5.581,-0.111694336
5.582,-0.110550031
5.583,-0.109466676
5.584,-0.10737616
5.585,-0.106765808
5.586,-0.104522705
5.587,-0.104354878
5.588,-0.102951109
5.589,-0.101791362
5.59,-0.101928711
5.591,-0.10066229
5.592,-0.099456826
5.593,-0.099334717
5.594,-0.098068294
5.595,-0.097030659
5.596,-0.097015418
5.597,-0.095886342
5.598,-0.094726599
5.599,-0.09454353
5.6,-0.092681994
5.601,-0.092010498
5.602,-0.091034007
5.603,-0.089691198
5.604,-0.089660715
5.605,-0.087554967
5.606,-0.087356654
5.607,-0.085128801
5.608,-0.083679301
5.609,-0.082504323
5.61,-0.081268377
5.611,-0.080368092
5.612,-0.078521794
5.613,-0.077484163
5.614,-0.075347933
5.615,-0.072753938
5.616,-0.071365404
5.617,-0.070159944
5.618,-0.068161057
5.619,-0.066238388
5.62,-0.065567062
5.621,-0.065322861
5.622,-0.065063417
5.623,-0.065292373
5.624,-0.065155029
5.625,-0.063995449
5.626,-0.062881455
5.627,-0.063018799
5.628,-0.063018799
5.629,-0.062744113
5.63,-0.062805231
5.631,-0.062850966
5.632,-0.063018799
5.633,-0.062988308
5.634,-0.060867323
5.635,-0.06015012
5.636,-0.060348576
5.637,-0.05812074
5.638,-0.057693469
5.639,-0.058075001
5.64,-0.055679334
5.641,-0.055358911
5.642,-0.055511499
5.643,-0.054397643
5.644,-0.052947998
5.645,-0.052978492
5.646,-0.051956235
5.647,-0.050506592
5.648,-0.049240146
5.649,-0.04817203
5.65,-0.046066295
5.651,-0.045486439
5.652,-0.043472301
5.653,-0.043319713
5.654,-0.042205852
5.655,-0.040847809
5.656,-0.040878306
5.657,-0.039596608
5.658,-0.038406402
5.659,-0.038345308
5.66,-0.037170448
5.661,-0.03625492
5.662,-0.035705566
5.663,-0.033554086
5.664,-0.03326416
5.665,-0.033538836
5.666,-0.03326416
5.667,-0.033355747
5.668,-0.031265267
5.669,-0.03112793
5.67,-0.030838005
5.671,-0.031097428
5.672,-0.029861474
5.673,-0.028686523
5.674,-0.028686523
5.675,-0.027389563
5.676,-0.026229866
5.677,-0.026077278
5.678,-0.026046774
5.679,-0.024078383
5.68,-0.023925795
5.681,-0.023330695
5.682,-0.021621723
5.683,-0.021484388
5.684,-0.019790668
5.685,-0.01887514
5.686,-0.017486596
5.687,-0.016342157
5.688,-0.015304604
5.689,-0.013610829
5.69,-0.012893703
5.691,-0.011444092
5.692,-0.010452295
5.693,-0.009262099
5.694,-0.006698613
5.695,-0.006668104
5.696,-0.004013048
5.697,-0.004058855
5.698,-0.001968388
5.699,-0.001693722
5.7,-0.000244156
5.701,0.000762939
5.702,0.000808705
5.703,0.002914425
5.704,0.003372189
5.705,0.004348739
5.706,0.005661008
5.707,0.006790147
5.708,0.008102414
5.709,0.009231555
5.71,0.010665896
5.711,0.01182555
5.712,0.012969971
5.713,0.013992296
5.714,0.015289303
5.715,0.016708366
5.716,0.017639151
5.717,0.020004271
5.718,0.021270747
5.719,0.023071287
5.72,0.02519226
5.721,0.025482178
5.722,0.025451661
5.723,0.025421139
5.724,0.031799315
5.725,0.034957886
5.726,0.036270141
5.727,0.037582398
5.728,0.039382935
5.729,0.039382935
5.73,0.041839601
5.731,0.043395999
5.732,0.044158939
5.733,0.046676635
5.734,0.04698181
5.735,0.048019418
5.736,0.049346929
5.737,0.051254271
5.738,0.052856452
5.739,0.054306028
5.74,0.054885878
5.741,0.056945805
5.742,0.058670055
5.743,0.060348523
5.744,0.0619049
5.745,0.062942518
5.746,0.063949588
5.747,0.064254764
5.748,0.066238406
5.749,0.066390994
5.75,0.066543582
5.751,0.068817139
5.752,0.068954464
5.753,0.070114155
5.754,0.071273808
5.755,0.071578984
5.756,0.073577889
5.757,0.073867802
5.758,0.07402039
5.759,0.076141357
5.76,0.076293945
5.761,0.076171885
5.762,0.076293945
5.763,0.076293945
5.764,0.076309209
5.765,0.076324474
5.766,0.076126093
5.767,0.07630921
5.768,0.07630921
5.769,0.076293945
5.77,0.076293945
5.771,0.076446533
5.772,0.076263415
5.773,0.075149503
5.774,0.073715217
5.775,0.072738627
5.776,0.071365335
5.777,0.068969727
5.778,0.067962602
5.779,0.06652832
5.78,0.064193703
5.781,0.061904884
5.782,0.059005713
5.783,0.057128858
5.784,0.053634602
5.785,0.050567577
5.786,0.047256444
5.787,0.043411212
5.788,0.040817217
5.789,0.037643406
5.79,0.035201999
5.791,0.031539889
5.792,0.029052678
5.793,0.026336632
5.794,0.022308272
5.795,0.019119194
5.796,0.014678875
5.797,0.00956723
5.798,0.007049479
5.799,0.002410764
5.8,-0.001251242
5.801,-0.004715062
5.802,-0.008758588
5.803,-0.012100362
5.804,-0.01596076
5.805,-0.019332965
5.806,-0.022506771
5.807,-0.024978718
5.808,-0.02844243
5.809,-0.032409715
5.81,-0.034698534
5.811,-0.036758532
5.812,-0.040344287
5.813,-0.044158985
5.814,-0.047332789
5.815,-0.049667422
5.816,-0.052703909
5.817,-0.055282632
5.818,-0.057464678
5.819,-0.060302761
5.82,-0.062545763
5.821,-0.062850939
5.822,-0.064727811
5.823,-0.066268962
5.824,-0.067474393
5.825,-0.067642254
5.826,-0.069900527
5.827,-0.07019043
5.828,-0.071334912
5.829,-0.072784424
5.83,-0.072662383
5.831,-0.072753876
5.832,-0.073944183
5.833,-0.074829163
5.834,-0.075088516
5.835,-0.075042693
5.836,-0.075210556
5.837,-0.07490538
5.838,-0.075057967
5.839,-0.07522583
5.84,-0.075088517
5.841,-0.075363143
5.842,-0.075088518
5.843,-0.074813893
5.844,-0.075073242
5.845,-0.075057966
5.846,-0.073928747
5.847,-0.072479248
5.848,-0.072647112
5.849,-0.0727997
5.85,-0.072631836
5.851,-0.072463971
5.852,-0.070480329
5.853,-0.070312464
5.854,-0.070037842
5.855,-0.070037842
5.856,-0.067916889
5.857,-0.067718468
5.858,-0.067611713
5.859,-0.067825222
5.86,-0.065628071
5.861,-0.065444927
5.862,-0.065307617
5.863,-0.06300352
5.864,-0.062423726
5.865,-0.060699423
5.866,-0.060272217
5.867,-0.060546835
5.868,-0.059142985
5.869,-0.057983398
5.87,-0.058135986
5.871,-0.057800252
5.872,-0.055526713
5.873,-0.05566402
5.874,-0.055496152
5.875,-0.053054746
5.876,-0.053070025
5.877,-0.053085306
5.878,-0.052963279
5.879,-0.053100586
5.88,-0.052947998
5.881,-0.052810691
5.882,-0.052825972
5.883,-0.052810691
5.884,-0.052947998
5.885,-0.051803475
5.886,-0.050506592
5.887,-0.050506592
5.888,-0.050506592
5.889,-0.050750639
5.89,-0.04862969
5.891,-0.048217773
5.892,-0.048156643
5.893,-0.046050978
5.894,-0.045654345
5.895,-0.04579165
5.896,-0.044357227
5.897,-0.043045068
5.898,-0.043334961
5.899,-0.043441698
5.9,-0.043045069
5.901,-0.043304393
5.902,-0.041336034
5.903,-0.040893555
5.904,-0.040908839
5.905,-0.040618948
5.906,-0.040847701
5.907,-0.040756251
5.908,-0.04090884
5.909,-0.040756252
5.91,-0.039459123
5.911,-0.038162258
5.912,-0.038177543
5.913,-0.038177544
5.914,-0.038421577
5.915,-0.037292318
5.916,-0.036254774
5.917,-0.03598017
5.918,-0.035842868
5.919,-0.03398124
5.92,-0.033248874
5.921,-0.033523476
5.922,-0.031265231
5.923,-0.031112643
5.924,-0.030960055
5.925,-0.030670166
5.926,-0.028839111
5.927,-0.028686523
5.928,-0.028396635
5.929,-0.028518648
5.93,-0.028961123
5.931,-0.028671235
5.932,-0.028396636
5.933,-0.028518647
5.934,-0.028518647
5.935,-0.028549224
5.936,-0.028686523
5.937,-0.028808533
5.938,-0.027114777
5.939,-0.025955231
5.94,-0.025939941
5.941,-0.02607724
5.942,-0.02606195
5.943,-0.026367125
5.944,-0.025939941
5.945,-0.026245117
5.946,-0.026092529
5.947,-0.026260408
5.948,-0.02612311
5.949,-0.026123111
5.95,-0.02610782
5.951,-0.026092529
5.952,-0.02610782
5.953,-0.02633654
5.954,-0.025985816
5.955,-0.025802645
5.956,-0.025939941
5.957,-0.026214533
5.958,-0.026092529
5.959,-0.025970526
5.96,-0.025787354
5.961,-0.025695935
5.962,-0.026077237
5.963,-0.024978536
5.964,-0.023666416
5.965,-0.02363583
5.966,-0.023513828
5.967,-0.022659129
5.968,-0.021606307
5.969,-0.021240304
5.97,-0.021194423
5.971,-0.021194423
5.972,-0.021331717
5.973,-0.021514893
5.974,-0.021225011
5.975,-0.021362305
5.976,-0.021331716
5.977,-0.021087718
5.978,-0.021362305
5.979,-0.021041834
5.98,-0.021057129
5.981,-0.021225012
5.982,-0.021606299
5.983,-0.018905603
5.984,-0.019012303
5.985,-0.018631019
5.986,-0.018905602
5.987,-0.018524319
5.988,-0.018692204
5.989,-0.020935134
5.99,-0.021255607
5.991,-0.022461013
5.992,-0.023803711
5.993,-0.023956299
5.994,-0.023773117
5.995,-0.023941002
5.996,-0.023651123
5.997,-0.02264381
5.998,-0.021468999
5.999,-0.021194419
6,-0.021240313
6.001,-0.021057129
6.002,-0.021484296
6.003,-0.021209717
6.004,-0.021225015
6.005,-0.021392902
6.006,-0.021225016
6.007,-0.021087727
6.008,-0.021285809
6.009,-0.018798909
6.01,-0.018493734
6.011,-0.018875
6.012,-0.019912925
6.013,-0.021057129
6.014,-0.021057129
6.015,-0.019180174
6.016,-0.018768311
6.017,-0.018768311
6.018,-0.018890297
6.019,-0.018615723
6.02,-0.019042885
6.021,-0.018737708
6.022,-0.018890296
6.023,-0.018646325
6.024,-0.018859693
6.025,-0.018463135
6.026,-0.017623687
6.027,-0.016601476
6.028,-0.01646419
6.029,-0.016342206
6.03,-0.017303641
6.031,-0.018768311
6.032,-0.018631025
6.033,-0.018615723
6.034,-0.018783613
6.035,-0.019073486
6.036,-0.018890292
6.037,-0.017638982
6.038,-0.016738758
6.039,-0.016479492
6.04,-0.016220228
6.041,-0.01606764
6.042,-0.016464188
6.043,-0.016601472
6.044,-0.016464188
6.045,-0.016326904
6.046,-0.016037033
6.047,-0.016448883
6.048,-0.016204926
6.049,-0.016326904
6.05,-0.016326904
6.051,-0.016479492
6.052,-0.01634221
6.053,-0.016204928
6.054,-0.016464186
6.055,-0.016174316
6.056,-0.016464186
6.057,-0.016601468
6.058,-0.016342211
6.059,-0.015029669
6.06,-0.014144754
6.061,-0.013717603
6.062,-0.013885498
6.063,-0.013748217
6.064,-0.014038086
6.065,-0.013763525
6.066,-0.013916113
6.067,-0.013839575
6.068,-0.01200852
6.069,-0.011276196
6.07,-0.011032252
6.071,-0.011154224
6.072,-0.011154224
6.073,-0.011566063
6.074,-0.01171865
6.075,-0.011444092
6.076,-0.011306813
6.077,-0.011428783
6.078,-0.011306813
6.079,-0.011413473
6.08,-0.010299429
6.081,-0.009002686
6.082,-0.00942983
6.083,-0.009307861
6.084,-0.009002686
6.085,-0.008865408
6.086,-0.008880718
6.087,-0.008850098
6.088,-0.008880719
6.089,-0.008728131
6.09,-0.009139962
6.091,-0.008590855
6.092,-0.008987374
6.093,-0.009307861
6.094,-0.009033309
6.095,-0.011306816
6.096,-0.011306816
6.097,-0.011306816
6.098,-0.011459404
6.099,-0.011581367
6.1,-0.011611992
6.101,-0.011459404
6.102,-0.011566054
6.103,-0.011306817
6.104,-0.011611993
6.105,-0.011413466
6.106,-0.011733954
6.107,-0.01159668
6.108,-0.011306817
6.109,-0.011474719
6.11,-0.011322132
6.111,-0.01171864
6.112,-0.011428778
6.113,-0.01147472
6.114,-0.011611994
6.115,-0.011306818
6.116,-0.011596121
6.117,-0.002822596
6.118,-0.001403921
6.119,-0.001556509
6.12,-0.001403922
6.121,-0.001434553
6.122,-0.00155651
6.123,-0.001525879
6.124,-0.001388607
6.125,-0.001403923
6.126,-0.002960434
6.127,-0.003723374
6.128,-0.004241828
6.129,-0.004119873
6.13,-0.004104556
6.131,-0.004150507
6.132,-0.004257144
6.133,-0.004257144
6.134,-0.003845332
6.135,-0.004119873
6.136,-0.00399792
6.137,-0.003982603
6.138,-0.003997921
6.139,-0.004348459
6.14,-0.001815737
6.141,-0.001541197
6.142,-0.001525879
6.143,-0.001495242
6.144,0.000778258
6.145,0.001159428
6.146,0.000595033
6.147,0.000656309
6.148,0.00064099
6.149,0.000610352
6.15,0.00074762
6.151,0.000930847
6.152,0.00289917
6.153,0.003067078
6.154,0.003219666
6.155,0.003219666
6.156,0.003341613
6.157,0.003189025
6.158,0.003204346
6.159,0.002074947
6.16,0.000793581
6.161,0.001068115
6.162,0.000732297
6.163,0.001022151
6.164,0.000778261
6.165,0.000900206
6.166,0.000778261
6.167,0.000915527
6.168,0.000915527
6.169,0.001755078
6.17,0.002929815
6.171,0.003310966
6.172,0.002929815
6.173,0.003356934
6.174,0.003082404
6.175,0.003173699
6.176,0.003173699
6.177,0.003189022
6.178,0.003051758
6.179,0.00334161
6.18,0.003494198
6.181,0.003356934
6.182,0.003189022
6.183,0.003189021
6.184,0.003113056
6.185,0.005371225
6.186,0.005661077
6.187,0.005508489
6.188,0.005371226
6.189,0.004516336
6.19,0.002914495
6.191,0.003051758
6.192,0.003204346
6.193,0.00289917
6.194,0.003494196
6.195,0.00318902
6.196,0.003204346
6.197,0.003341607
6.198,0.003310954
6.199,0.003067084
6.2,0.003067085
6.201,0.004364422
6.202,0.005767686
6.203,0.005783013
6.204,0.005783013
6.205,0.005752358
6.206,0.003097741
6.207,0.003189018
6.208,0.003341606
6.209,0.00317369
6.21,0.003204346
6.211,0.003219674
6.212,0.003219674
6.213,0.003051758
6.214,0.003204346
6.215,0.003235003
6.216,0.003219675
6.217,0.003326275
6.218,0.003189016
6.219,0.003189016
6.22,0.003372263
6.221,0.003356934
6.222,0.003189016
6.223,0.003189016
6.224,0.001037455
6.225,0.000915527
6.226,0.000641012
6.227,-0.000381829
6.228,-0.001571871
6.229,-0.001678467
6.23,-0.00154121
6.231,-0.001693798
6.232,-0.001571873
6.233,-0.001525879
6.234,-0.001678467
6.235,-0.001541211
6.236,-0.001952979
6.237,-0.000396436
6.238,0.001006787
6.239,-0.001251368
6.24,-0.001541211
6.241,-0.001693799
6.242,-0.001571877
6.243,-0.001815722
6.244,-0.001541212
6.245,-0.003708109
6.246,-0.004135206
6.247,-0.00410454
6.248,-0.003799364
6.249,-0.004135207
6.25,-0.004073871
6.251,-0.001968309
6.252,-0.00161713
6.253,0.000366513
6.254,0.002029646
6.255,0.004227215
6.256,0.006790541
6.257,0.009231948
6.258,0.011856613
6.259,0.015563965
6.26,0.017639619
6.261,0.019913103
6.262,0.022842177
6.263,0.02388039
6.264,0.025604094
6.265,0.026459049
6.266,0.027633744
6.267,0.027496493
6.268,0.027481157
6.269,0.027740323
6.27,0.027496494
6.271,0.027740322
6.272,0.027572397
6.273,0.02532959
6.274,0.025207677
6.275,0.025451503
6.276,0.025252902
6.277,0.023025434
6.278,0.022903522
6.279,0.022979419
6.28,0.020721277
6.281,0.020446777
6.282,0.019012132
6.283,0.017990032
6.284,0.01689124
6.285,0.015685875
6.286,0.014022747
6.287,0.012817383
6.288,0.011566001
6.289,0.010391316
6.29,0.009673587
6.291,0.008025799
6.292,0.006210084
6.293,0.00576766
6.294,0.003509521
6.295,0.003082439
6.296,0.003356934
6.297,0.003067098
6.298,0.002196774
6.299,0.000915527
6.3,0.000884845
6.301,0.000519129
6.302,0.000579669
6.303,0.000732256
6.304,-0.001388633
6.305,-0.001587246
6.306,-0.003799355
6.307,-0.004165899
6.308,-0.006149542
6.309,-0.006256104
6.31,-0.006591964
6.311,-0.009002686
6.312,-0.009002686
6.313,-0.00913993
6.314,-0.008865441
6.315,-0.008850098
6.316,-0.009155273
6.317,-0.009155273
6.318,-0.007720608
6.319,-0.006698523
6.32,-0.006439379
6.321,-0.005126612
6.322,-0.004272461
6.323,-0.00407384
6.324,-0.001556568
6.325,-0.00140398
6.326,-0.001693812
6.327,-0.001678467
6.328,-0.000289831
6.329,0.000641042
6.33,-0.000366557
6.331,-0.00155657
6.332,-0.001678467
6.333,-0.001724504
6.334,-0.001815709
6.335,-0.001815709
6.336,-0.001663121
6.337,-0.001403984
6.338,-0.001678467
6.339,-0.001647773
6.34,0.000625698
6.341,0.001052768
6.342,0.000884833
6.343,0.000762939
6.344,0.001755204
6.345,0.003356934
6.346,0.003219693
6.347,0.003067106
6.348,0.003219694
6.349,0.003235042
6.35,0.003356934
6.351,0.003356934
6.352,0.003036409
6.353,0.002670738
6.354,0.003219695
6.355,0.004349206
6.356,0.005645752
6.357,0.00590488
6.358,0.005264735
6.359,0.005691801
6.36,0.005645752
6.361,0.005493164
6.362,0.005630402
6.363,0.005615052
6.364,0.005386627
6.365,0.005767639
6.366,0.005904876
6.367,0.005630401
6.368,0.005661103
6.369,0.005767638
6.37,0.005782989
6.371,0.005630401
6.372,0.004638116
6.373,0.003310879
6.374,0.001006708
6.375,-0.001251407
6.376,-0.004990276
6.377,-0.01004103
6.378,-0.015076431
6.379,-0.021851709
6.38,-0.030320808
6.381,-0.041551843
6.382,-0.055773225
6.383,-0.070574254
6.384,-0.08754222
6.385,-0.10573089
6.386,-0.123385029
6.387,-0.138796409
6.388,-0.153582085
6.389,-0.164872642
6.39,-0.172577856
6.391,-0.176315784
6.392,-0.17759695
6.393,-0.175246714
6.394,-0.169508834
6.395,-0.160093488
6.396,-0.146496848
6.397,-0.129650756
6.398,-0.106823024
6.399,-0.081355231
6.4,-0.050928813
6.401,-0.019113746
6.402,0.018225197
6.403,0.058295369
6.404,0.102317472
6.405,0.149422046
6.406,0.200569713
6.407,0.251839257
6.408,0.303230675
6.409,0.352470505
6.41,0.401298641
6.411,0.450279366
6.412,0.497856085
6.413,0.544608434
6.414,0.58983589
6.415,0.634971201
6.416,0.679038397
6.417,0.722724617
6.418,0.765631549
6.419,0.807471357
6.42,0.849051069
6.421,0.887991707
6.422,0.926122332
6.423,0.955799186
6.424,0.975893715
6.425,0.984970193
6.426,0.979444303
6.427,0.961222894
6.428,0.928582425
6.429,0.885169649
6.43,0.832861701
6.431,0.774663252
6.432,0.711430411
6.433,0.647831966
6.434,0.584477256
6.435,0.521901861
6.436,0.463049004
6.437,0.405675944
6.438,0.349569669
6.439,0.295187945
6.44,0.244086351
6.441,0.193793781
6.442,0.148262159
6.443,0.104301474
6.444,0.06128807
6.445,0.022546098
6.446,-0.013144115
6.447,-0.047536814
6.448,-0.078679079
6.449,-0.106510495
6.45,-0.131320876
6.451,-0.152163971
6.452,-0.171817088
6.453,-0.188036455
6.454,-0.200517939
6.455,-0.21141209
6.456,-0.219880197
6.457,-0.225281181
6.458,-0.227997036
6.459,-0.229171648
6.46,-0.227904852
6.461,-0.225600669
6.462,-0.222884815
6.463,-0.220580632
6.464,-0.217940543
6.465,-0.214629703
6.466,-0.212203661
6.467,-0.209762254
6.468,-0.207214355
6.469,-0.205947556
6.47,-0.204574265
6.471,-0.202468765
6.472,-0.202300811
6.473,-0.200164581
6.474,-0.199874771
6.475,-0.199584961
6.476,-0.197632051
6.477,-0.197326876
6.478,-0.196044706
6.479,-0.19483937
6.48,-0.193572566
6.481,-0.192672405
6.482,-0.191161893
6.483,-0.189850071
6.484,-0.189773233
6.485,-0.18751515
6.486,-0.18737793
6.487,-0.186385563
6.488,-0.184951891
6.489,-0.183944155
6.49,-0.182586232
6.491,-0.180465369
6.492,-0.180022974
6.493,-0.1780547
6.494,-0.177840636
6.495,-0.175491443
6.496,-0.174178525
6.497,-0.173003929
6.498,-0.171752487
6.499,-0.170531783
6.5,-0.168136486
6.501,-0.166732455
6.502,-0.165405273
6.503,-0.164443635
6.504,-0.162795909
6.505,-0.160934113
6.506,-0.159392863
6.507,-0.158096425
6.508,-0.155822978
6.509,-0.154678008
6.51,-0.153320088
6.511,-0.151183857
6.512,-0.149733708
6.513,-0.147292301
6.514,-0.14584328
6.515,-0.143828893
6.516,-0.142455602
6.517,-0.140975839
6.518,-0.138824236
6.519,-0.136535417
6.52,-0.135100635
