Time(10ms),Amplitude(mV)
0,0.000762939
1,-0.000610352
2,0.000762939
3,0.002288818
4,0.005340576
5,0.008087158
6,0.010375977
7,0.011444092
8,0.01083374
9,0.010375977
10,0.012969971
11,0.013122559
12,0.012969971
13,0.012969971
14,0.010375977
15,0.017852783
16,0.027618408
17,0.057830811
18,0.056762695
19,0.053863525
20,0.055847168
21,0.009613037
22,-0.014190674
23,-0.013885498
24,-0.004272461
25,-0.009002686
26,-0.015258789
27,-0.014953613
28,-0.01159668
29,-0.008850098
30,-0.006256104
31,-0.003967285
32,-0.003967285
33,-0.003814697
34,-0.046844482
35,-0.06652832
36,0.066070557
37,0.545196533
38,1.094512939
39,0.451507568
40,-0.21697998
41,-0.458374023
42,-0.369262695
43,-0.194396973
44,-0.108184814
45,-0.077514648
46,-0.058898926
47,-0.046081543
48,-0.033569336
49,-0.023498535
50,-0.013427734
51,-0.002746582
52,0.00793457
53,0.019073486
54,0.027618408
55,0.037231445
56,0.048522949
57,0.063171387
58,0.078735352
59,0.099487305
60,0.122833252
61,0.144500732
62,0.160827637
63,0.174102783
64,0.176544189
65,0.158081055
66,0.109558105
67,0.029449463
68,-0.055236816
69,-0.127410889
70,-0.174102783
71,-0.202026367
72,-0.210723877
73,-0.209350586
74,-0.197296143
75,-0.177612305
76,-0.161895752
77,-0.146026611
78,-0.12878418
79,-0.113983154
80,-0.097198486
81,-0.083465576
82,-0.070343018
83,-0.059051514
84,-0.051727295
85,-0.043029785
86,-0.040740967
87,-0.035552979
88,-0.030822754
89,-0.028533936
90,-0.026092529
91,-0.023803711
92,-0.021209717
93,-0.021209717
94,-0.021362305
95,-0.018615723
96,-0.018615723
97,-0.018615723
98,-0.013885498
99,-0.013885498
100,-0.01159668
101,-0.009307861
102,-0.011444092
103,-0.009002686
104,-0.003662109
105,-0.003814697
106,-0.001525879
107,0.000915527
108,0.001068115
109,0.003662109
110,0.000610352
111,0.005950928
112,0.005645752
113,0.003204346
114,0.00579834
115,0.003509521
116,0.007629395
117,0.010528564
118,0.010681152
119,0.011901855
120,0.013122559
121,0.01083374
122,0.012817383
123,0.008239746
124,0.010681152
125,0.007171631
126,0.008087158
127,0.015563965
128,0.028839111
129,0.052947998
130,0.042419434
131,0.051422119
132,0.036468506
133,-0.005950928
134,-0.021057129
135,-0.007629395
136,-0.008850098
137,-0.022277832
138,-0.026092529
139,-0.018768311
140,-0.018768311
141,-0.014038086
142,-0.011749268
143,-0.011291504
144,-0.011444092
145,-0.024414063
146,-0.079803467
147,-0.047149658
148,0.181274414
149,0.864868164
150,0.850372314
151,0.198669434
152,-0.297241211
153,-0.449981689
154,-0.338897705
155,-0.183258057
156,-0.110473633
157,-0.075378418
158,-0.052642822
159,-0.039367676
160,-0.031738281
161,-0.02243042
162,-0.013885498
163,-0.006256104
164,0.003662109
165,0.013275146
166,0.020446777
167,0.03036499
168,0.037231445
169,0.050964355
170,0.065460205
171,0.084991455
172,0.106811523
173,0.127563477
174,0.13885498
175,0.147399902
176,0.149841309
177,0.132751465
178,0.084075928
179,0.015716553
180,-0.057678223
181,-0.11505127
182,-0.15838623
183,-0.177459717
184,-0.178985596
185,-0.171661377
186,-0.159454346
187,-0.14175415
188,-0.125274658
189,-0.110321045
190,-0.096893311
191,-0.079956055
192,-0.070495605
193,-0.065155029
194,-0.058898926
195,-0.049133301
196,-0.040588379
197,-0.036773682
198,-0.033111572
199,-0.026092529
200,-0.021362305
201,-0.021514893
202,-0.021057129
203,-0.018615723
204,-0.016174316
205,-0.016174316
206,-0.010528564
207,-0.011138916
208,-0.006408691
209,-0.006713867
210,-0.006408691
211,-0.004119873
212,-0.003662109
213,-0.001525879
214,0.000915527
215,0.005645752
216,0.00579834
217,0.005493164
218,0.00579834
219,0.005645752
220,0.008087158
221,0.010528564
222,0.020141602
223,0.033569336
224,0.064086914
225,0.056610107
226,0.061035156
227,0.05065918
228,0.004882813
229,-0.016479492
230,-0.011138916
231,-0.003967285
232,-0.011444092
233,-0.016021729
234,-0.016174316
235,-0.013885498
236,-0.007171631
237,-0.006103516
238,-0.006561279
239,-0.001068115
240,0.00579834
241,-0.018615723
242,-0.065002441
243,0.006256104
244,0.343017578
245,1.0496521
246,0.710144043
247,-0.008087158
248,-0.410003662
249,-0.415649414
250,-0.249481201
251,-0.12802124
252,-0.080108643
253,-0.062408447
254,-0.045623779
255,-0.033416748
256,-0.019073486
257,-0.011444092
258,-0.004425049
259,0.003356934
260,0.012054443
261,0.020599365
262,0.031738281
263,0.04196167
264,0.059356689
265,0.073547363
266,0.095825195
267,0.117797852
268,0.13885498
269,0.157165527
270,0.170593262
271,0.178222656
272,0.166778564
273,0.124664307
274,0.054626465
275,-0.035705566
276,-0.1171875
277,-0.173950195
278,-0.206756592
279,-0.218963623
280,-0.21697998
281,-0.202178955
282,-0.187530518
283,-0.171508789
284,-0.15411377
285,-0.137481689
286,-0.121459961
287,-0.104370117
288,-0.08605957
289,-0.074920654
290,-0.065460205
291,-0.055236816
292,-0.045471191
293,-0.038452148
294,-0.030975342
295,-0.025939941
296,-0.026245117
297,-0.023803711
298,-0.023651123
299,-0.023956299
300,-0.023498535
301,-0.023651123
302,-0.018768311
303,-0.018615723
304,-0.016174316
305,-0.013885498
306,-0.012359619
307,-0.00869751
308,-0.006408691
309,-0.004119873
310,-0.001525879
311,0.003509521
312,0.000762939
313,0.001068115
314,0.004577637
315,0.005493164
316,0.005645752
317,0.003356934
318,0.005493164
319,0.007781982
320,0.00793457
321,0.008544922
322,0.01083374
323,0.008239746
324,0.009460449
325,0.008239746
326,0.005645752
327,0.010986328
328,0.016174316
329,0.045318604
330,0.063781738
331,0.057067871
332,0.06439209
333,0.031738281
334,-0.00289917
335,-0.018920898
336,-0.009155273
337,-0.010223389
338,-0.021057129
339,-0.021057129
340,-0.018310547
341,-0.016326904
342,-0.011749268
343,-0.010986328
344,-0.004272461
345,-0.001525879
346,-0.012512207
347,-0.067443848
348,-0.022888184
349,0.251464844
350,0.959472656
351,0.818023682
352,0.051422119
353,-0.404205322
354,-0.430297852
355,-0.270385742
356,-0.136108398
357,-0.08605957
358,-0.061340332
359,-0.045471191
360,-0.033569336
361,-0.021209717
362,-0.014190674
363,-0.006713867
364,0.001983643
365,0.008087158
366,0.015869141
367,0.028991699
368,0.042114258
369,0.055389404
370,0.06652832
371,0.076293945
372,0.095825195
373,0.119018555
374,0.138702393
375,0.156860352
376,0.159759521
377,0.155029297
378,0.133972168
379,0.068359375
380,-0.009918213
381,-0.087127686
382,-0.151672363
383,-0.191345215
384,-0.202026367
385,-0.202484131
386,-0.19744873
387,-0.190734863
388,-0.17074585
389,-0.147247314
390,-0.13885498
391,-0.116882324
392,-0.104217529
393,-0.094604492
394,-0.076293945
395,-0.058898926
396,-0.055236816
397,-0.045623779
398,-0.045623779
399,-0.037994385
400,-0.027313232
401,-0.023651123
402,-0.025787354
403,-0.026092529
404,-0.014190674
405,-0.016174316
406,-0.018920898
407,-0.028381348
408,-0.020904541
409,-0.021057129
410,-0.01373291
411,-0.00869751
412,-0.006408691
413,-0.011291504
414,-0.003814697
415,0.004425049
416,0.013275146
417,0.000915527
418,-0.00289917
419,-0.021057129
420,-0.012817383
421,0.015106201
422,0.013275146
423,0.017547607
424,0.013122559
425,0.059356689
426,0.003662109
427,0.006866455
428,0.032653809
429,0.035247803
430,0.050506592
431,0.048217773
432,-0.018615723
433,-0.028686523
434,-0.025787354
435,-0.022277832
436,-0.012817383
437,-0.013427734
438,-0.03112793
439,-0.026245117
440,-0.016174316
441,-0.024871826
442,0.000762939
443,-0.000457764
444,-0.003967285
445,-0.056152344
446,-0.083312988
447,0.062713623
448,0.570220947
449,0.975341797
450,0.415344238
451,-0.142211914
452,-0.436248779
453,-0.397033691
454,-0.233917236
455,-0.116577148
456,-0.092468262
457,-0.065307617
458,-0.054168701
459,-0.024719238
460,-0.009307861
461,-0.006561279
462,0.006713867
463,0.015106201
464,0.022888184
465,0.030212402
466,0.034942627
467,0.04119873
468,0.056304932
469,0.063934326
470,0.076446533
471,0.090942383
472,0.106658936
473,0.117797852
474,0.122833252
475,0.12298584
476,0.11428833
477,0.077667236
478,0.010681152
479,-0.062866211
480,-0.122375488
481,-0.157775879
482,-0.175323486
483,-0.177764893
484,-0.170288086
485,-0.156097412
486,-0.142364502
487,-0.123901367
488,-0.109405518
489,-0.094451904
490,-0.078430176
491,-0.061798096
492,-0.054321289
493,-0.045623779
494,-0.036010742
495,-0.030670166
496,-0.021362305
497,-0.016326904
498,-0.01373291
499,-0.011444092
500,-0.004882813
501,-0.001831055
502,-0.001373291
503,0.000305176
504,0.003356934
505,0.00579834
506,0.008087158
507,0.010375977
508,0.003204346
509,0.003509521
510,0.005950928
511,0.005340576
512,0.005645752
513,0.008087158
514,0.015869141
515,0.026855469
516,0.053100586
517,0.052032471
518,0.053100586
519,0.055847168
520,0.012054443
521,-0.013885498
522,-0.011444092
523,-0.001373291
524,-0.011291504
525,-0.016326904
526,-0.013427734
527,-0.011138916
528,-0.004272461
529,-0.001678467
530,-0.001678467
531,0.000457764
532,0.000762939
533,-0.043029785
534,-0.061645508
535,0.063171387
536,0.48538208
537,1.040344238
538,0.547790527
539,-0.061798096
540,-0.403137207
541,-0.394744873
542,-0.241088867
543,-0.133056641
544,-0.086364746
545,-0.062561035
546,-0.046691895
547,-0.035705566
548,-0.028991699
549,-0.016479492
550,-0.006408691
551,-0.001678467
552,0.003356934
553,0.013122559
554,0.026397705
555,0.037689209
556,0.049285889
557,0.064239502
558,0.083618164
559,0.106811523
560,0.129394531
561,0.144500732
562,0.152282715
563,0.149841309
564,0.139007568
565,0.102386475
566,0.032196045
567,-0.048828125
568,-0.112609863
569,-0.152282715
570,-0.176544189
571,-0.185394287
572,-0.180358887
573,-0.168609619
574,-0.153198242
575,-0.136108398
576,-0.119018555
577,-0.103149414
578,-0.089874268
579,-0.073852539
580,-0.063018799
581,-0.055389404
582,-0.048065186
583,-0.038604736
584,-0.035705566
585,-0.033111572
586,-0.026245117
587,-0.021209717
588,-0.021362305
589,-0.023956299
590,-0.021209717
591,-0.021057129
592,-0.016326904
593,-0.018768311
594,-0.010986328
595,-0.01159668
596,-0.011138916
597,-0.009307861
598,-0.006561279
599,-0.003814697
600,-0.001220703
601,0.000762939
602,0.000915527
603,0.000915527
604,0.000915527
605,0.001068115
606,0.010681152
607,0.021972656
608,0.053863525
609,0.056762695
610,0.057067871
611,0.050811768
612,0.007019043
613,-0.018310547
614,-0.019226074
615,-0.006561279
616,-0.01373291
617,-0.023651123
618,-0.021514893
619,-0.012664795
620,-0.006561279
621,-0.004119873
622,0.000762939
623,0.003509521
624,0.001068115
625,-0.046386719
626,-0.04699707
627,0.122833252
628,0.665435791
629,1.094207764
630,0.381164551
631,-0.254669189
632,-0.463562012
633,-0.356140137
634,-0.180969238
635,-0.105895996
636,-0.038757324
637,-0.029296875
638,-0.063476563
639,-0.080108643
640,-0.049591064
641,-0.012664795
642,-0.006561279
643,0.064544678
644,0.04989624
645,0.057830811
646,0.013275146
647,0.032348633
648,0.079498291
649,0.106964111
650,0.114135742
651,0.164489746
652,0.133056641
653,0.110473633
654,0.138549805
655,0.16784668
656,0.136566162
657,0.110931396
658,0.057067871
659,-0.111846924
660,-0.177612305
661,-0.196838379
662,-0.230102539
663,-0.215759277
664,-0.164489746
665,-0.151672363
666,-0.214385986
667,-0.185089111
668,-0.145111084
669,-0.116729736
670,-0.10055542
671,-0.086975098
672,-0.079803467
673,-0.065460205
674,-0.05065918
675,-0.045776367
676,-0.040588379
677,-0.035858154
678,-0.030822754
679,-0.03326416
680,-0.02822876
681,-0.026397705
682,-0.023651123
683,-0.020904541
684,-0.018615723
685,-0.023651123
686,-0.023956299
687,-0.018615723
688,-0.018615723
689,-0.014801025
690,-0.011291504
691,-0.003967285
692,-0.008850098
693,-0.00869751
694,-0.006408691
695,-0.002288818
696,-0.003967285
697,-0.006561279
698,-0.003814697
699,-0.000457764
700,0.003356934
701,0.00579834
702,0.003204346
703,0.003356934
704,0.005645752
705,0.008392334
706,0.010681152
707,0.010681152
708,0.012969971
709,0.020599365
710,0.032196045
711,0.066680908
712,0.061798096
713,0.067596436
714,0.067749023
715,0.014648438
716,-0.013580322
717,-0.016479492
718,-0.009002686
719,-0.014038086
720,-0.019836426
721,-0.019836426
722,-0.011444092
723,-0.008850098
724,-0.003662109
725,-0.001525879
726,-0.001220703
727,-0.007629395
728,-0.066223145
729,-0.05355835
730,0.163726807
731,0.798034668
732,1.00769043
733,0.217132568
734,-0.358123779
735,-0.451812744
736,-0.303344727
737,-0.153656006
738,-0.10055542
739,-0.077667236
740,-0.059204102
741,-0.045623779
742,-0.03326416
743,-0.022125244
744,-0.009002686
745,0.003356934
746,0.012969971
747,0.022735596
748,0.034942627
749,0.04486084
750,0.055847168
751,0.070495605
752,0.087280273
753,0.105133057
754,0.125274658
755,0.143585205
756,0.15914917
757,0.169219971
758,0.169067383
759,0.146026611
760,0.085449219
761,0.002593994
762,-0.080718994
763,-0.144500732
764,-0.18371582
765,-0.204315186
766,-0.207061768
767,-0.199737549
768,-0.184936523
769,-0.168457031
770,-0.1512146
771,-0.13381958
772,-0.120239258
773,-0.106964111
774,-0.091247559
775,-0.078735352
776,-0.067443848
777,-0.057983398
778,-0.05279541
779,-0.046081543
780,-0.038299561
781,-0.033416748
782,-0.028533936
783,-0.028533936
784,-0.028839111
785,-0.026092529
786,-0.021514893
787,-0.018768311
788,-0.018920898
789,-0.016174316
790,-0.01373291
791,-0.01159668
792,-0.009155273
793,-0.006866455
794,-0.006561279
795,-0.001983643
796,0.000457764
797,0.003509521
798,0.00579834
799,0.005645752
800,0.007781982
801,-0.001068115
802,0.003356934
803,0.003204346
804,0.009460449
805,0.013275146
806,0.008544922
807,0.005493164
808,0.010681152
809,0.010681152
810,0.011901855
811,0.012969971
812,0.018157959
813,0.031280518
814,0.060272217
815,0.05645752
816,0.059051514
817,0.058135986
818,0.012054443
819,-0.011291504
820,-0.01159668
821,-0.004119873
822,-0.01159668
823,-0.020904541
824,-0.021057129
825,-0.016174316
826,-0.016174316
827,-0.011444092
828,-0.006408691
829,-0.009002686
830,-0.019989014
831,-0.081481934
832,-0.057067871
833,0.202331543
834,0.919189453
835,0.895080566
836,0.126342773
837,-0.377044678
838,-0.450744629
839,-0.306091309
840,-0.160827637
841,-0.104675293
842,-0.077514648
843,-0.057983398
844,-0.044403076
845,-0.03112793
846,-0.023498535
847,-0.018615723
848,-0.004882813
849,0.005493164
850,0.015258789
851,0.022735596
852,0.031585693
853,0.040893555
854,0.052947998
855,0.070343018
856,0.089569092
857,0.109100342
858,0.127410889
859,0.142211914
860,0.154571533
861,0.154876709
862,0.13168335
863,0.075073242
864,0.000152588
865,-0.070953369
866,-0.132293701
867,-0.167999268
868,-0.182647705
869,-0.180511475
870,-0.172729492
871,-0.161895752
872,-0.147247314
873,-0.129699707
874,-0.114440918
875,-0.102844238
876,-0.088500977
877,-0.077514648
878,-0.067596436
879,-0.062713623
880,-0.052947998
881,-0.043640137
882,-0.039367676
883,-0.033569336
884,-0.025939941
885,-0.023803711
886,-0.021362305
887,-0.018920898
888,-0.020751953
889,-0.018768311
890,-0.018615723
891,-0.018615723
892,-0.014038086
893,-0.013885498
894,-0.013885498
895,-0.005187988
896,-0.006408691
897,-0.004119873
898,-0.003967285
899,-0.001678467
900,-0.001373291
901,0.000762939
902,0.001068115
903,0.000762939
904,0.008239746
905,0.010681152
906,0.015563965
907,0.028839111
908,0.052032471
909,0.047149658
910,0.061798096
911,0.045776367
912,0.00579834
913,-0.016326904
914,-0.010986328
915,-0.011749268
916,-0.011444092
917,-0.011444092
918,-0.010986328
919,-0.011138916
920,-0.011444092
921,-0.011444092
922,-0.011138916
923,-0.011444092
924,-0.011444092
925,-0.011444092
926,-0.01159668
927,-0.102844238
928,0.511322021
929,0.617523193
930,-0.008239746
931,-0.507507324
932,-0.663299561
933,-0.546722412
934,-0.365447998
935,-0.267181396
936,-0.223083496
937,-0.186004639
938,-0.154571533
939,-0.148620605
940,-0.106964111
941,-0.101928711
942,-0.066375732
943,-0.063018799
944,-0.034332275
945,-0.033416748
946,-0.008850098
947,-0.009002686
948,-0.009002686
949,-0.009002686
950,-0.009002686
951,-0.009002686
952,-0.009155273
953,-0.009155273
954,-0.009002686
955,-0.009002686
956,-0.009002686
957,-0.009002686
958,-0.00869751
959,-0.009307861
960,-0.00869751
961,-0.009155273
962,-0.008850098
963,-0.008850098
964,-0.008850098
965,-0.008850098
966,0.046844482
967,0.283813477
968,0.29876709
969,0.280761719
970,0.261230469
971,0.241241455
972,0.220794678
973,0.199127197
974,0.179901123
975,0.164794922
976,0.147094727
977,0.130004883
978,0.112915039
979,0.098571777
980,0.086212158
981,0.077362061
982,0.067138672
983,0.059051514
984,0.048217773
985,0.039367676
986,0.035095215
987,0.030517578
988,0.02532959
989,0.022735596
990,0.023040771
991,0.020294189
992,0.017700195
993,0.012969971
994,0.009155273
995,0.008392334
996,0.00579834
997,0.003204346
998,0.003356934
999,0.001678467
1000,0.000915527
1001,0.000762939
1002,0.000915527
1003,0.000762939
1004,-0.001678467
1005,-0.003967285
1006,0.000915527
1007,0.007019043
1008,0.020141602
1009,0.049133301
1010,0.041046143
1011,0.05065918
1012,0.031585693
1013,-0.010986328
1014,-0.03112793
1015,-0.025939941
1016,-0.021209717
1017,-0.030975342
1018,-0.038452148
1019,-0.035858154
1020,-0.033111572
1021,-0.030975342
1022,-0.02822876
1023,-0.023193359
1024,-0.021057129
1025,-0.034484863
1026,-0.08972168
1027,-0.059661865
1028,0.198516846
1029,0.898590088
1030,0.89553833
1031,0.11932373
1032,-0.388183594
1033,-0.444641113
1034,-0.294647217
1035,-0.155181885
1036,-0.104370117
1037,-0.076141357
1038,-0.058898926
1039,-0.044403076
1040,-0.03616333
1041,-0.025939941
1042,-0.016479492
1043,-0.006256104
1044,0.00579834
1045,0.015716553
1046,0.029907227
1047,0.039825439
1048,0.049438477
1049,0.062561035
1050,0.077819824
1051,0.095825195
1052,0.116729736
1053,0.139923096
1054,0.156860352
1055,0.164642334
1056,0.164489746
1057,0.136260986
1058,0.069122314
1059,-0.016021729
1060,-0.100097656
1061,-0.161437988
1062,-0.193786621
1063,-0.206756592
1064,-0.209503174
1065,-0.198516846
1066,-0.180206299
1067,-0.163269043
1068,-0.146026611
1069,-0.128936768
1070,-0.119018555
1071,-0.105285645
1072,-0.090637207
1073,-0.075378418
1074,-0.062713623
1075,-0.053253174
1076,-0.046844482
1077,-0.040893555
1078,-0.035705566
1079,-0.030975342
1080,-0.026245117
1081,-0.026092529
1082,-0.026092529
1083,-0.023651123
1084,-0.023651123
1085,-0.023803711
1086,-0.020904541
1087,-0.01739502
1088,-0.013885498
1089,-0.011444092
1090,-0.010070801
1091,-0.009002686
1092,-0.008850098
1093,-0.006561279
1094,-0.003967285
1095,-0.001678467
1096,-0.001678467
1097,-0.001373291
1098,0.003509521
1099,0.003356934
1100,0.003204346
1101,0.003356934
1102,0.00579834
1103,0.00793457
1104,0.003509521
1105,0.005645752
1106,0.008392334
1107,0.013275146
1108,0.015258789
1109,0.013122559
1110,0.015563965
1111,0.013122559
1112,0.015563965
1113,0.015411377
1114,0.02166748
1115,0.03616333
1116,0.06362915
1117,0.05065918
1118,0.056762695
1119,0.043487549
1120,0.001373291
1121,-0.020294189
1122,-0.013885498
1123,-0.006408691
1124,-0.01739502
1125,-0.023498535
1126,-0.021057129
1127,-0.018463135
1128,-0.016174316
1129,-0.016326904
1130,-0.012512207
1131,-0.009307861
1132,-0.019989014
1133,-0.076293945
1134,-0.04699707
1135,0.218811035
1136,0.940856934
1137,0.847625732
1138,0.102081299
1139,-0.373535156
1140,-0.441131592
1141,-0.325469971
1142,-0.152587891
1143,-0.10055542
1144,-0.071258545
1145,-0.057830811
1146,-0.045776367
1147,-0.033416748
1148,-0.024108887
1149,-0.013580322
1150,-0.003051758
1151,0.003356934
1152,0.013122559
1153,0.02243042
1154,0.032653809
1155,0.039978027
1156,0.049438477
1157,0.068817139
1158,0.088653564
1159,0.115203857
1160,0.134887695
1161,0.144805908
1162,0.151824951
1163,0.149688721
1164,0.116729736
1165,0.050811768
1166,-0.026855469
1167,-0.077362061
1168,-0.132141113
1169,-0.167694092
1170,-0.180206299
1171,-0.182800293
1172,-0.175323486
1173,-0.165710449
1174,-0.148925781
1175,-0.133514404
1176,-0.116729736
1177,-0.09979248
1178,-0.089569092
1179,-0.079956055
1180,-0.069732666
1181,-0.057830811
1182,-0.051116943
1183,-0.043182373
1184,-0.038452148
1185,-0.033569336
1186,-0.030822754
1187,-0.023345947
1188,-0.021362305
1189,-0.019073486
1190,-0.014038086
1191,-0.016326904
1192,-0.018615723
1193,-0.019836426
1194,-0.018310547
1195,-0.016174316
1196,-0.016479492
1197,-0.013580322
1198,-0.013885498
1199,-0.009002686
1200,-0.008850098
1201,-0.004119873
1202,-0.004119873
1203,-0.001525879
1204,-0.001831055
1205,-0.001525879
1206,-0.001678467
1207,0.003204346
1208,0.005645752
1209,0.003356934
1210,0.005187988
1211,0.00793457
1212,0.008239746
1213,0.017852783
1214,0.027923584
1215,0.047149658
1216,0.042266846
1217,0.05569458
1218,0.045928955
1219,0.004272461
1220,-0.01373291
1221,-0.009155273
1222,0.001068115
1223,-0.010070801
1224,-0.014038086
1225,-0.016021729
1226,-0.009002686
1227,-0.006408691
1228,-0.006408691
1229,-0.000610352
1230,0.000762939
1231,-0.001525879
1232,-0.06149292
1233,-0.054473877
1234,0.111846924
1235,0.674285889
1236,0.978240967
1237,0.388031006
1238,-0.164794922
1239,-0.424346924
1240,-0.367889404
1241,-0.203857422
1242,-0.113220215
1243,-0.081176758
1244,-0.05645752
1245,-0.040893555
1246,-0.028839111
1247,-0.019836426
1248,-0.008850098
1249,-0.001831055
1250,0.00579834
1251,0.015411377
1252,0.023193359
1253,0.032501221
1254,0.039520264
1255,0.048065186
1256,0.063934326
1257,0.084991455
1258,0.105743408
1259,0.126495361
1260,0.14251709
1261,0.151672363
1262,0.155792236
1263,0.141448975
1264,0.09475708
1265,0.023193359
1266,-0.051574707
1267,-0.110168457
1268,-0.153808594
1269,-0.174865723
1270,-0.180206299
1271,-0.172729492
1272,-0.158233643
1273,-0.143585205
1274,-0.13092041
1275,-0.11138916
1276,-0.097045898
1277,-0.082550049
1278,-0.067596436
1279,-0.057983398
1280,-0.048065186
1281,-0.041809082
1282,-0.036010742
1283,-0.028533936
1284,-0.030517578
1285,-0.028533936
1286,-0.023956299
1287,-0.018920898
1288,-0.018768311
1289,-0.018463135
1290,-0.018768311
1291,-0.018920898
1292,-0.016479492
1293,-0.016326904
1294,-0.01373291
1295,-0.014038086
1296,-0.009002686
1297,-0.006256104
1298,-0.003967285
1299,0.001068115
1300,0.000915527
1301,0.004730225
1302,0.005950928
1303,0.00579834
1304,0.00579834
1305,0.008087158
1306,0.008087158
1307,0.008087158
1308,0.009155273
1309,0.008392334
1310,0.00579834
1311,0.008087158
1312,0.008087158
1313,0.008087158
1314,0.008392334
1315,0.010223389
1316,0.015869141
1317,0.02746582
1318,0.056762695
1319,0.050811768
1320,0.059204102
1321,0.045776367
1322,-0.000305176
1323,-0.018615723
1324,-0.016479492
1325,-0.01373291
1326,-0.021209717
1327,-0.027160645
1328,-0.023803711
1329,-0.018768311
1330,-0.01663208
1331,-0.013427734
1332,-0.009002686
1333,-0.006561279
1334,-0.015716553
1335,-0.069885254
1336,-0.038299561
1337,0.212249756
1338,0.887298584
1339,0.899963379
1340,0.133514404
1341,-0.374603271
1342,-0.440979004
1343,-0.290679932
1344,-0.160980225
1345,-0.098419189
1346,-0.07019043
1347,-0.051879883
1348,-0.040740967
1349,-0.030670166
1350,-0.020904541
1351,-0.010223389
1352,0.000457764
1353,0.009307861
1354,0.020294189
1355,0.029602051
1356,0.037689209
1357,0.049438477
1358,0.066223145
1359,0.083770752
1360,0.102081299
1361,0.126495361
1362,0.146942139
1363,0.161895752
1364,0.172729492
1365,0.167999268
1366,0.141296387
1367,0.082855225
1368,-0.003662109
1369,-0.088195801
1370,-0.152587891
1371,-0.194549561
1372,-0.215606689
1373,-0.216827393
1374,-0.20980835
1375,-0.197601318
1376,-0.180358887
1377,-0.163269043
1378,-0.14831543
1379,-0.131378174
1380,-0.11428833
1381,-0.095825195
1382,-0.08026123
1383,-0.07019043
1384,-0.060424805
1385,-0.048065186
1386,-0.040740967
1387,-0.035705566
1388,-0.030670166
1389,-0.03112793
1390,-0.025939941
1391,-0.023193359
1392,-0.022125244
1393,-0.021209717
1394,-0.023651123
1395,-0.021362305
1396,-0.018310547
1397,-0.016326904
1398,-0.016174316
1399,-0.013580322
1400,-0.011444092
1401,-0.011291504
1402,-0.009307861
1403,-0.006713867
1404,-0.004119873
1405,-0.001525879
1406,-0.004119873
1407,-0.002593994
1408,0.001068115
1409,0.003509521
1410,0.003356934
1411,0.003509521
1412,0.005645752
1413,0.008239746
1414,0.008239746
1415,0.010681152
1416,0.010681152
1417,0.010528564
1418,0.010528564
1419,0.012817383
1420,0.013122559
1421,0.015716553
1422,0.015411377
1423,0.013122559
1424,0.012969971
1425,0.012969971
1426,0.010681152
1427,0.010681152
1428,0.014190674
1429,0.025024414
1430,0.053253174
1431,0.054168701
1432,0.049285889
1433,0.054473877
1434,0.010986328
1435,-0.01373291
1436,-0.018920898
1437,-0.008850098
1438,-0.013580322
1439,-0.021057129
1440,-0.023956299
1441,-0.018768311
1442,-0.016326904
1443,-0.013885498
1444,-0.010070801
1445,-0.006408691
1446,-0.006408691
1447,-0.057830811
1448,-0.071258545
1449,0.084838867
1450,0.644683838
1451,1.084289551
1452,0.378112793
1453,-0.263061523
1454,-0.454101563
1455,-0.346374512
1456,-0.183410645
1457,-0.110931396
1458,-0.079956055
1459,-0.060882568
1460,-0.046691895
1461,-0.036010742
1462,-0.025939941
1463,-0.014038086
1464,-0.001220703
1465,0.01449585
1466,0.022888184
1467,0.027313232
1468,0.032653809
1469,0.043487549
1470,0.054168701
1471,0.071258545
1472,0.090942383
1473,0.112915039
1474,0.140075684
1475,0.154571533
1476,0.163269043
1477,0.168914795
1478,0.153503418
1479,0.102081299
1480,0.023498535
1481,-0.063323975
1482,-0.134735107
1483,-0.177764893
1484,-0.20904541
1485,-0.214233398
1486,-0.207366943
1487,-0.197143555
1488,-0.178070068
1489,-0.157928467
1490,-0.139923096
1491,-0.123901367
1492,-0.109405518
1493,-0.097503662
1494,-0.082092285
1495,-0.072479248
1496,-0.057983398
1497,-0.055541992
1498,-0.048065186
1499,-0.038452148
1500,-0.033416748
1501,-0.028686523
1502,-0.026092529
1503,-0.018768311
1504,-0.016174316
1505,-0.016174316
1506,-0.018615723
1507,-0.016326904
1508,-0.01663208
1509,-0.016174316
1510,-0.018768311
1511,-0.01373291
1512,-0.010223389
1513,-0.004119873
1514,-0.006561279
1515,-0.004119873
1516,-0.001525879
1517,0.000762939
1518,0.001373291
1519,-0.001678467
1520,0.000915527
1521,0.000762939
1522,0.003662109
1523,0.003051758
1524,0.003356934
1525,0.000915527
1526,0.010681152
1527,0.00793457
1528,0.013122559
1529,0.012969971
1530,0.015563965
1531,0.013122559
1532,0.015563965
1533,0.013427734
1534,0.010681152
1535,0.010528564
1536,0.015563965
1537,0.02746582
1538,0.046081543
1539,0.057830811
1540,0.04699707
1541,0.061645508
1542,0.024414063
1543,-0.006103516
1544,-0.01373291
1545,-0.000305176
1546,-0.006408691
1547,-0.017700195
1548,-0.018920898
1549,-0.016326904
1550,-0.01373291
1551,-0.006866455
1552,-0.001678467
1553,0.000915527
1554,-0.003814697
1555,-0.05355835
1556,-0.06652832
1557,0.066070557
1558,0.567932129
1559,1.009063721
1560,0.463867188
1561,-0.105133057
1562,-0.41305542
1563,-0.389862061
1564,-0.235748291
1565,-0.132598877
1566,-0.090942383
1567,-0.068817139
1568,-0.053710938
1569,-0.040740967
1570,-0.031280518
1571,-0.021209717
1572,-0.012359619
1573,-0.001831055
1574,0.005645752
1575,0.015563965
1576,0.022583008
1577,0.030059814
1578,0.042114258
1579,0.056915283
1580,0.071411133
1581,0.090484619
1582,0.110473633
1583,0.127716064
1584,0.13885498
1585,0.144958496
1586,0.140991211
1587,0.10925293
1588,0.049133301
1589,-0.02456665
1590,-0.085754395
1591,-0.134735107
1592,-0.162963867
1593,-0.174102783
1594,-0.170288086
1595,-0.159301758
1596,-0.146179199
1597,-0.133666992
1598,-0.119171143
1599,-0.099639893
1600,-0.084686279
1601,-0.073699951
1602,-0.061645508
1603,-0.05279541
1604,-0.045776367
1605,-0.040893555
1606,-0.036010742
1607,-0.033111572
1608,-0.028381348
1609,-0.021057129
1610,-0.023803711
1611,-0.021514893
1612,-0.018768311
1613,-0.016021729
1614,-0.01373291
1615,-0.01373291
1616,-0.013885498
1617,-0.011444092
1618,-0.008850098
1619,-0.006408691
1620,-0.003967285
1621,-0.004119873
1622,-0.006103516
1623,-0.003662109
1624,-0.001373291
1625,0.000610352
1626,0.000762939
1627,0.000762939
1628,0.000915527
1629,0.003356934
1630,0.008239746
1631,0.008239746
1632,0.009460449
1633,0.010528564
1634,0.010681152
1635,0.010681152
1636,0.012969971
1637,0.014343262
1638,0.020446777
1639,0.03616333
1640,0.061187744
1641,0.049591064
1642,0.063018799
1643,0.039825439
1644,-0.001525879
1645,-0.016326904
1646,-0.008087158
1647,-0.006408691
1648,-0.016326904
1649,-0.018310547
1650,-0.016021729
1651,-0.011291504
1652,-0.009307861
1653,-0.006561279
1654,-0.001525879
1655,0.000762939
1656,-0.007629395
1657,-0.065155029
1658,-0.048065186
1659,0.167999268
1660,0.808258057
1661,0.941162109
1662,0.225524902
1663,-0.3074646
1664,-0.444488525
1665,-0.324401855
1666,-0.168304443
1667,-0.10345459
1668,-0.077819824
1669,-0.055541992
1670,-0.042114258
1671,-0.026092529
1672,-0.016326904
1673,-0.008850098
1674,0.003356934
1675,0.013122559
1676,0.023040771
1677,0.035247803
1678,0.044708252
1679,0.054626465
1680,0.069122314
1681,0.08605957
1682,0.107727051
1683,0.131378174
1684,0.153656006
1685,0.166625977
1686,0.171813965
1687,0.172729492
1688,0.146179199
1689,0.08392334
1690,-0.001220703
1691,-0.084228516
1692,-0.149536133
1693,-0.192260742
1694,-0.213775635
1695,-0.21697998
1696,-0.21194458
1697,-0.195007324
1698,-0.185089111
1699,-0.159759521
1700,-0.139923096
1701,-0.124969482
1702,-0.104370117
1703,-0.092010498
1704,-0.079803467
1705,-0.070648193
1706,-0.058288574
1707,-0.048370361
1708,-0.045776367
1709,-0.041809082
1710,-0.036010742
1711,-0.029602051
1712,-0.026092529
1713,-0.021514893
1714,-0.018768311
1715,-0.018768311
1716,-0.021057129
1717,-0.020904541
1718,-0.016174316
1719,-0.018615723
1720,-0.015106201
1721,-0.014038086
1722,-0.011444092
1723,-0.006408691
1724,-0.003814697
1725,-0.004272461
1726,-0.001678467
1727,0.001068115
1728,0.003356934
1729,0.003356934
1730,0.005645752
1731,0.008392334
1732,0.008087158
1733,0.008239746
1734,0.008392334
1735,0.008087158
1736,0.010681152
1737,0.01083374
1738,0.010681152
1739,0.012817383
1740,0.013122559
1741,0.012817383
1742,0.015563965
1743,0.015716553
1744,0.015716553
1745,0.018157959
1746,0.016021729
1747,0.015563965
1748,0.013275146
1749,0.015716553
1750,0.024414063
1751,0.040893555
1752,0.071716309
1753,0.056915283
1754,0.066833496
1755,0.046081543
1756,0.00213623
1757,-0.016174316
1758,-0.009155273
1759,-0.009002686
1760,-0.020141602
1761,-0.02822876
1762,-0.028381348
1763,-0.023498535
1764,-0.020751953
1765,-0.016021729
1766,-0.011291504
1767,-0.006408691
1768,-0.019683838
1769,-0.077514648
1770,-0.034637451
1771,0.235748291
1772,0.925292969
1773,0.851287842
1774,0.053405762
1775,-0.41229248
1776,-0.417785645
1777,-0.24887085
1778,-0.12878418
1779,-0.087432861
1780,-0.067596436
1781,-0.048370361
1782,-0.038299561
1783,-0.031280518
1784,-0.023498535
1785,-0.01159668
1786,-0.000762939
1787,0.010681152
1788,0.019683838
1789,0.030212402
1790,0.042419434
1791,0.056610107
1792,0.071716309
1793,0.089874268
1794,0.110778809
1795,0.13381958
1796,0.154571533
1797,0.17074585
1798,0.18157959
1799,0.179138184
1800,0.148620605
1801,0.082550049
1802,-0.007476807
1803,-0.09475708
1804,-0.160675049
1805,-0.199737549
1806,-0.219421387
1807,-0.224151611
1808,-0.216674805
1809,-0.2003479
1810,-0.185241699
1811,-0.16784668
1812,-0.150909424
1813,-0.134735107
1814,-0.116577148
1815,-0.102081299
1816,-0.082397461
1817,-0.065460205
1818,-0.058898926
1819,-0.051879883
1820,-0.043182373
1821,-0.035705566
1822,-0.030975342
1823,-0.028381348
1824,-0.030822754
1825,-0.028533936
1826,-0.026092529
1827,-0.023651123
1828,-0.018920898
1829,-0.016174316
1830,-0.016174316
1831,-0.011444092
1832,-0.00869751
1833,-0.01373291
1834,-0.006561279
1835,-0.004119873
1836,-0.001373291
1837,-0.001831055
1838,0.000915527
1839,0.005950928
1840,0.008239746
1841,0.005645752
1842,0.000762939
1843,0.002288818
1844,0.005493164
1845,0.005493164
1846,0.005493164
1847,0.005950928
1848,0.005645752
1849,0.00793457
1850,0.008087158
1851,0.008544922
1852,0.008392334
1853,0.012817383
1854,0.012664795
1855,0.012817383
1856,0.015563965
1857,0.015411377
1858,0.012969971
1859,0.010681152
1860,0.008239746
1861,0.010986328
1862,0.008087158
1863,0.014801025
1864,0.028991699
1865,0.060577393
1866,0.056610107
1867,0.06072998
1868,0.052947998
1869,0.004119873
1870,-0.018463135
1871,-0.018920898
1872,-0.011138916
1873,-0.019226074
1874,-0.025787354
1875,-0.023651123
1876,-0.021209717
1877,-0.018768311
1878,-0.016174316
1879,-0.01373291
1880,-0.01373291
1881,-0.021057129
1882,-0.083618164
1883,-0.067749023
1884,0.177612305
1885,0.882720947
1886,0.929412842
1887,0.160522461
1888,-0.366668701
1889,-0.44342041
1890,-0.296783447
1891,-0.155029297
1892,-0.105285645
1893,-0.077819824
1894,-0.060119629
1895,-0.048065186
1896,-0.038146973
1897,-0.025939941
1898,-0.017242432
1899,-0.006866455
1900,0.003356934
1901,0.015411377
1902,0.025177002
1903,0.036773682
1904,0.04699707
1905,0.061798096
1906,0.079040527
1907,0.10055542
1908,0.12512207
1909,0.147399902
1910,0.163574219
1911,0.174407959
1912,0.176849365
1913,0.155487061
1914,0.097045898
1915,0.01159668
1916,-0.076141357
1917,-0.146331787
1918,-0.192260742
1919,-0.214233398
1920,-0.218963623
1921,-0.212097168
1922,-0.197143555
1923,-0.180969238
1924,-0.164031982
1925,-0.146942139
1926,-0.126953125
1927,-0.111541748
1928,-0.097198486
1929,-0.084991455
1930,-0.072631836
1931,-0.065460205
1932,-0.056152344
1933,-0.047912598
1934,-0.043182373
1935,-0.03616333
1936,-0.032043457
1937,-0.026092529
1938,-0.026092529
1939,-0.023498535
1940,-0.018615723
1941,-0.018615723
1942,-0.014038086
1943,-0.016479492
1944,-0.01373291
1945,-0.013885498
1946,-0.011291504
1947,-0.008850098
1948,-0.00869751
1949,-0.009002686
1950,-0.006256104
1951,-0.003967285
1952,0.000915527
1953,0.000915527
1954,0.003356934
1955,0.00579834
1956,0.005950928
1957,0.008087158
1958,0.008544922
1959,0.010528564
1960,0.013275146
1961,0.013275146
1962,0.015716553
1963,0.014648438
1964,0.013122559
1965,0.012969971
1966,0.015258789
1967,0.015563965
1968,0.013427734
1969,0.015411377
1970,0.015563965
1971,0.015563965
1972,0.015869141
1973,0.020294189
1974,0.02822876
1975,0.043945313
1976,0.059356689
1977,0.054473877
1978,0.074157715
1979,0.047912598
1980,0.00579834
1981,-0.013580322
1982,-0.004119873
1983,-0.010986328
1984,-0.021209717
1985,-0.021057129
1986,-0.018768311
1987,-0.01663208
1988,-0.011291504
1989,-0.011291504
1990,-0.009155273
1991,-0.006256104
1992,-0.048828125
1993,-0.079650879
1994,0.022277832
1995,0.469970703
1996,1.056060791
1997,0.549926758
1998,-0.064849854
1999,-0.41229248
2000,-0.407409668
2001,-0.248260498
2002,-0.132446289
2003,-0.087127686
2004,-0.062561035
2005,-0.045471191
2006,-0.032958984
2007,-0.020751953
2008,-0.011291504
2009,-0.004882813
2010,0.003356934
2011,0.012817383
2012,0.020446777
2013,0.030059814
2014,0.039367676
2015,0.047454834
2016,0.058898926
2017,0.078887939
2018,0.098266602
2019,0.120544434
2020,0.142669678
2021,0.157165527
2022,0.164794922
2023,0.161895752
2024,0.128479004
2025,0.066986084
2026,-0.017089844
2027,-0.091400146
2028,-0.145111084
2029,-0.179290771
2030,-0.192565918
2031,-0.190124512
2032,-0.180206299
2033,-0.163726807
2034,-0.149078369
2035,-0.132446289
2036,-0.113830566
2037,-0.09765625
2038,-0.084991455
2039,-0.072784424
2040,-0.062561035
2041,-0.052642822
2042,-0.045471191
2043,-0.043334961
2044,-0.038146973
2045,-0.033416748
2046,-0.030517578
2047,-0.028533936
2048,-0.025939941
2049,-0.021362305
2050,-0.020904541
2051,-0.018615723
2052,-0.018920898
2053,-0.016174316
2054,-0.01373291
2055,-0.011291504
2056,-0.009002686
2057,-0.006408691
2058,-0.001983643
2059,-0.001373291
2060,0.000762939
2061,0.000762939
2062,0.000762939
2063,0.000610352
2064,0.003356934
2065,0.008239746
2066,0.008239746
2067,0.008087158
2068,0.008239746
2069,0.010681152
2070,0.010681152
2071,0.01083374
2072,0.010528564
2073,0.00793457
2074,0.01083374
2075,0.010986328
2076,0.012969971
2077,0.010223389
2078,0.008087158
2079,0.008392334
2080,0.008087158
2081,0.008239746
2082,0.008239746
2083,0.010375977
2084,0.008239746
2085,0.008392334
2086,0.006103516
2087,0.016937256
2088,0.046386719
2089,0.059204102
2090,0.055847168
2091,0.071716309
2092,0.028381348
2093,-0.003509521
2094,-0.015869141
2095,-0.011444092
2096,-0.018768311
2097,-0.02822876
2098,-0.02822876
2099,-0.023498535
2100,-0.021057129
2101,-0.018768311
2102,-0.016174316
2103,-0.013885498
2104,-0.013275146
2105,-0.062103271
2106,-0.077209473
2107,0.077972412
2108,0.627593994
2109,1.087646484
2110,0.103149414
2111,-0.358123779
2112,-0.452728271
2113,-0.316467285
2114,-0.16418457
2115,-0.104522705
2116,-0.076904297
2117,-0.058441162
2118,-0.043334961
2119,-0.031890869
2120,-0.021057129
2121,-0.011444092
2122,-0.001373291
2123,0.01083374
2124,0.020446777
2125,0.029449463
2126,0.039367676
2127,0.051269531
2128,0.065917969
2129,0.081481934
2130,0.10269165
2131,0.125274658
2132,0.147857666
2133,0.164337158
2134,0.171966553
2135,0.174407959
2136,0.152130127
2137,0.093994141
2138,0.01159668
2139,-0.076446533
2140,-0.147705078
2141,-0.194244385
2142,-0.214691162
2143,-0.221710205
2144,-0.216827393
2145,-0.204162598
2146,-0.187530518
2147,-0.16998291
2148,-0.153045654
2149,-0.13381958
2150,-0.1171875
2151,-0.101165771
2152,-0.087432861
2153,-0.075378418
2154,-0.067596436
2155,-0.061035156
2156,-0.055084229
2157,-0.045928955
2158,-0.038299561
2159,-0.033569336
2160,-0.030517578
2161,-0.024108887
2162,-0.023651123
2163,-0.021209717
2164,-0.018768311
2165,-0.018463135
2166,-0.018615723
2167,-0.016021729
2168,-0.01373291
2169,-0.014038086
2170,-0.011291504
2171,-0.008544922
2172,-0.004119873
2173,0.000762939
2174,-0.001678467
2175,0
2176,0.003051758
2177,0.005645752
2178,0.00793457
2179,0.010681152
2180,0.013275146
2181,0.015411377
2182,0.018157959
2183,0.017852783
2184,0.015716553
2185,0.015258789
2186,0.014953613
2187,0.013122559
2188,0.01083374
2189,0.010528564
2190,0.012817383
2191,0.015563965
2192,0.013427734
2193,0.016021729
2194,0.013427734
2195,0.013122559
2196,0.013122559
2197,0.015411377
2198,0.015258789
2199,0.017700195
2200,0.024871826
2201,0.048370361
2202,0.056304932
2203,0.054321289
2204,0.065917969
2205,0.025787354
2206,-0.006713867
2207,-0.016326904
2208,-0.010986328
2209,-0.021209717
2210,-0.028381348
2211,-0.028533936
2212,-0.023651123
2213,-0.018920898
2214,-0.01663208
2215,-0.016479492
2216,-0.01373291
2217,-0.016479492
2218,-0.07232666
2219,-0.077819824
2220,0.088500977
2221,0.684356689
2222,1.018981934
2223,0.349884033
2224,-0.22857666
2225,-0.448760986
2226,-0.365142822
2227,-0.203552246
2228,-0.117034912
2229,-0.084533691
2230,-0.065765381
2231,-0.047912598
2232,-0.036010742
2233,-0.028533936
2234,-0.020751953
2235,-0.009002686
2236,0.003356934
2237,0.010681152
2238,0.01739502
2239,0.02532959
2240,0.037078857
2241,0.044708252
2242,0.05645752
2243,0.073547363
2244,0.096435547
2245,0.117492676
2246,0.136871338
2247,0.152130127
2248,0.162200928
2249,0.152435303
2250,0.113220215
2251,0.041809082
2252,-0.035095215
2253,-0.104064941
2254,-0.150909424
2255,-0.177612305
2256,-0.187530518
2257,-0.185089111
2258,-0.173339844
2259,-0.160064697
2260,-0.14541626
2261,-0.131835938
2262,-0.114135742
2263,-0.099945068
2264,-0.084381104
2265,-0.077667236
2266,-0.065307617
2267,-0.060424805
2268,-0.048675537
2269,-0.043182373
2270,-0.037994385
2271,-0.031585693
2272,-0.025939941
2273,-0.023651123
2274,-0.018615723
2275,-0.018615723
2276,-0.021209717
2277,-0.020904541
2278,-0.013885498
2279,-0.011444092
2280,-0.011444092
2281,-0.004425049
2282,-0.001373291
2283,-0.001678467
2284,0.000915527
2285,0.000915527
2286,-0.001525879
2287,0.002593994
2288,0.00289917
2289,0.005645752
2290,0.005950928
2291,0.005950928
2292,0.00579834
2293,0.005645752
2294,0.008239746
2295,0.008239746
2296,0.010986328
2297,0.009918213
2298,0.008087158
2299,0.008087158
2300,0.008392334
2301,0.013122559
2302,0.008239746
2303,0.010375977
2304,0.018463135
2305,0.02822876
2306,0.051116943
2307,0.047912598
2308,0.066680908
2309,0.051422119
2310,0.00793457
2311,-0.015563965
2312,-0.006561279
2313,-0.011138916
2314,-0.023651123
2315,-0.028686523
2316,-0.019226074
2317,-0.018615723
2318,-0.016326904
2319,-0.014038086
2320,-0.009002686
2321,-0.011138916
2322,-0.033874512
2323,-0.0730896
2324,0.001373291
2325,0.316772461
2326,0.989685059
2327,0.706634521
2328,0.091552734
2329,-0.336303711
2330,-0.422363281
2331,-0.29586792
2332,-0.158081055
2333,-0.098876953
2334,-0.072937012
2335,-0.056152344
2336,-0.043945313
2337,-0.028533936
2338,-0.021209717
2339,-0.014343262
2340,-0.006713867
2341,0.001068115
2342,0.008239746
2343,0.015258789
2344,0.025177002
2345,0.032501221
2346,0.044403076
2347,0.06149292
2348,0.083312988
2349,0.102996826
2350,0.115356445
2351,0.130157471
2352,0.141601563
2353,0.144195557
2354,0.121917725
2355,0.071563721
2356,-0.003509521
2357,-0.065765381
2358,-0.119781494
2359,-0.154266357
2360,-0.167999268
2361,-0.170440674
2362,-0.16494751
2363,-0.152435303
2364,-0.142822266
2365,-0.123748779
2366,-0.110168457
2367,-0.092773438
2368,-0.079345703
2369,-0.070037842
2370,-0.062561035
2371,-0.055236816
2372,-0.047912598
2373,-0.043182373
2374,-0.035858154
2375,-0.030822754
2376,-0.030517578
2377,-0.02532959
2378,-0.021362305
2379,-0.021514893
2380,-0.01373291
2381,-0.021057129
2382,-0.01373291
2383,-0.011291504
2384,-0.011138916
2385,-0.01373291
2386,-0.013122559
2387,-0.006561279
2388,-0.006408691
2389,-0.006561279
2390,-0.001831055
2391,-0.001831055
2392,0.000762939
2393,0.000915527
2394,0.003204346
2395,0.005645752
2396,0.005645752
2397,0.005493164
2398,0.005950928
2399,0.007171631
2400,0.005645752
2401,0.011444092
2402,0.038146973
2403,0.044708252
2404,0.046386719
2405,0.068817139
2406,0.032653809
2407,-0.003509521
2408,-0.018920898
2409,-0.006866455
2410,-0.011291504
2411,-0.023803711
2412,-0.021514893
2413,-0.018768311
2414,-0.021057129
2415,-0.015869141
2416,-0.006256104
2417,-0.004119873
2418,-0.005950928
2419,-0.048675537
2420,-0.04776001
2421,0.080566406
2422,0.537261963
2423,0.994110107
2424,0.45715332
2425,-0.099487305
2426,-0.403747559
2427,-0.378112793
2428,-0.229034424
2429,-0.132751465
2430,-0.090179443
2431,-0.064239502
2432,-0.050506592
2433,-0.03326416
2434,-0.025482178
2435,-0.018768311
2436,-0.006866455
2437,0.003051758
2438,0.010528564
2439,0.015563965
2440,0.025634766
2441,0.034790039
2442,0.046386719
2443,0.057525635
2444,0.073547363
2445,0.091247559
2446,0.111236572
2447,0.127105713
2448,0.135192871
2449,0.139770508
2450,0.135345459
2451,0.10055542
2452,0.039825439
2453,-0.037841797
2454,-0.099639893
2455,-0.141906738
2456,-0.167999268
2457,-0.178222656
2458,-0.172576904
2459,-0.165863037
2460,-0.1512146
2461,-0.13671875
2462,-0.115661621
2463,-0.104827881
2464,-0.088806152
2465,-0.077209473
2466,-0.072479248
2467,-0.062255859
2468,-0.055389404
2469,-0.046386719
2470,-0.038146973
2471,-0.030975342
2472,-0.028991699
2473,-0.026092529
2474,-0.023498535
2475,-0.021057129
2476,-0.016174316
2477,-0.016479492
2478,-0.016174316
2479,-0.01159668
2480,-0.011291504
2481,-0.01373291
2482,-0.011444092
2483,-0.00793457
2484,-0.006561279
2485,-0.006713867
2486,-0.004119873
2487,-0.000762939
2488,0.000610352
2489,0.003356934
2490,0.000915527
2491,0.003356934
2492,0.008239746
2493,0.00579834
2494,0.00793457
2495,0.008239746
2496,0.008087158
2497,0.010375977
2498,0.012512207
2499,0.012969971
2500,0.019989014
2501,0.045471191
2502,0.051879883
2503,0.056152344
2504,0.06439209
2505,0.022735596
2506,-0.008392334
2507,-0.014343262
2508,-0.003967285
2509,-0.012207031
2510,-0.023498535
2511,-0.023651123
2512,-0.018310547
2513,-0.013885498
2514,-0.009002686
2515,-0.006408691
2516,-0.003814697
2517,-0.007476807
2518,-0.054473877
2519,-0.039520264
2520,0.125274658
2521,0.655517578
2522,0.993652344
2523,0.336151123
2524,-0.219573975
2525,-0.430297852
2526,-0.345153809
2527,-0.187072754
2528,-0.106658936
2529,-0.076599121
2530,-0.054626465
2531,-0.041046143
2532,-0.031738281
2533,-0.021209717
2534,-0.009002686
2535,0.000762939
2536,0.010681152
2537,0.017089844
2538,0.02456665
2539,0.037078857
2540,0.046844482
2541,0.06072998
2542,0.078277588
2543,0.098266602
2544,0.117797852
2545,0.139923096
2546,0.157165527
2547,0.168914795
2548,0.166625977
2549,0.148162842
2550,0.096893311
2551,0.018768311
2552,-0.065612793
2553,-0.136871338
2554,-0.177612305
2555,-0.202026367
2556,-0.206604004
2557,-0.204620361
2558,-0.189666748
2559,-0.172729492
2560,-0.155944824
2561,-0.141143799
2562,-0.124816895
2563,-0.10635376
2564,-0.08972168
2565,-0.075378418
2566,-0.065155029
2567,-0.055541992
2568,-0.045776367
2569,-0.040740967
2570,-0.038299561
2571,-0.031738281
2572,-0.023956299
2573,-0.018920898
2574,-0.016174316
2575,-0.018615723
2576,-0.016021729
2577,-0.01373291
2578,-0.01373291
2579,-0.01373291
2580,-0.013885498
2581,-0.01373291
2582,-0.011291504
2583,-0.006713867
2584,-0.006408691
2585,-0.006713867
2586,-0.006561279
2587,-0.004119873
2588,-0.001831055
2589,-0.001525879
2590,0.000610352
2591,0.001220703
2592,0.003204346
2593,0.005645752
2594,0.005493164
2595,0.008544922
2596,0.01083374
2597,0.010986328
2598,0.010681152
2599,0.010986328
2600,0.010681152
2601,0.01083374
2602,0.013122559
2603,0.015411377
2604,0.015716553
2605,0.012817383
2606,0.010528564
2607,0.01083374
2608,0.013427734
2609,0.018615723
2610,0.032043457
2611,0.061950684
2612,0.056762695
2613,0.060424805
2614,0.045318604
2615,0.000915527
2616,-0.018768311
2617,-0.011444092
2618,-0.012969971
2619,-0.025177002
2620,-0.028533936
2621,-0.028533936
2622,-0.023956299
2623,-0.021209717
2624,-0.018920898
2625,-0.01373291
2626,-0.011291504
2627,-0.019989014
2628,-0.074157715
2629,-0.033721924
2630,0.213317871
2631,0.876312256
2632,0.889129639
2633,0.126190186
2634,-0.372772217
2635,-0.432739258
2636,-0.28137207
2637,-0.142669678
2638,-0.090637207
2639,-0.066223145
2640,-0.050506592
2641,-0.038909912
2642,-0.028381348
2643,-0.016479492
2644,-0.006408691
2645,0.001068115
2646,0.010681152
2647,0.022583008
2648,0.032806396
2649,0.04196167
2650,0.052337646
2651,0.068359375
2652,0.087585449
2653,0.111846924
2654,0.134735107
2655,0.156097412
2656,0.173187256
2657,0.18157959
2658,0.179290771
2659,0.152893066
2660,0.090637207
2661,0.0050354
2662,-0.082855225
2663,-0.169372559
2664,-0.204467773
2665,-0.219421387
2666,-0.221557617
2667,-0.215301514
2668,-0.200653076
2669,-0.184936523
2670,-0.167999268
2671,-0.151824951
2672,-0.13381958
2673,-0.118865967
2674,-0.102844238
2675,-0.087280273
2676,-0.073242188
2677,-0.062561035
2678,-0.05065918
2679,-0.043334961
2680,-0.038299561
2681,-0.03326416
2682,-0.030975342
2683,-0.026092529
2684,-0.018768311
2685,-0.018768311
2686,-0.018615723
2687,-0.018615723
2688,-0.016326904
2689,-0.016326904
2690,-0.01663208
2691,-0.013885498
2692,-0.013885498
2693,-0.008850098
2694,-0.006561279
2695,-0.006256104
2696,-0.006561279
2697,-0.006103516
2698,-0.003967285
2699,-0.001525879
2700,-0.001373291
2701,0.002288818
2702,0.003204346
2703,0.004882813
2704,0.008087158
2705,0.010681152
2706,0.010681152
2707,0.008239746
2708,0.008239746
2709,0.010986328
2710,0.013275146
2711,0.010681152
2712,0.012359619
2713,0.013427734
2714,0.015716553
2715,0.013275146
2716,0.015411377
2717,0.017547607
2718,0.018005371
2719,0.017852783
2720,0.018005371
2721,0.013122559
2722,0.010986328
2723,0.018005371
2724,0.034484863
2725,0.061645508
2726,0.051879883
2727,0.066375732
2728,0.045471191
2729,0.003662109
2730,-0.017700195
2731,-0.012512207
2732,-0.011291504
2733,-0.021362305
2734,-0.028533936
2735,-0.026092529
2736,-0.023803711
2737,-0.018615723
2738,-0.011749268
2739,-0.011291504
2740,-0.01159668
2741,-0.020141602
2742,-0.078735352
2743,-0.048065186
2744,0.212554932
2745,0.913391113
2746,0.884094238
2747,0.093688965
2748,-0.398254395
2749,-0.431365967
2750,-0.269470215
2751,-0.142822266
2752,-0.095977783
2753,-0.070800781
2754,-0.05279541
2755,-0.041046143
2756,-0.03112793
2757,-0.018920898
2758,-0.008850098
2759,0.000762939
2760,0.012969971
2761,0.023040771
2762,0.035247803
2763,0.043640137
2764,0.053710938
2765,0.066833496
2766,0.083618164
2767,0.103149414
2768,0.12512207
2769,0.146636963
2770,0.164642334
2771,0.176696777
2772,0.174713135
2773,0.150756836
2774,0.090332031
2775,0.004882813
2776,-0.080413818
2777,-0.151672363
2778,-0.194091797
2779,-0.218811035
2780,-0.221557617
2781,-0.214233398
2782,-0.202178955
2783,-0.185241699
2784,-0.162811279
2785,-0.143585205
2786,-0.128631592
2787,-0.11428833
2788,-0.096893311
2789,-0.083007813
2790,-0.070495605
2791,-0.060577393
2792,-0.050811768
2793,-0.042877197
2794,-0.033416748
2795,-0.031280518
2796,-0.025939941
2797,-0.025939941
2798,-0.021362305
2799,-0.019073486
2800,-0.018768311
2801,-0.016326904
2802,-0.016326904
2803,-0.016174316
2804,-0.01663208
2805,-0.013427734
2806,-0.01373291
2807,-0.009002686
2808,-0.009155273
2809,-0.009002686
2810,-0.006561279
2811,-0.004119873
2812,-0.003967285
2813,-0.001678467
2814,0.000762939
2815,0.000915527
2816,0.003051758
2817,0.005950928
2818,0.008239746
2819,0.010375977
2820,0.01083374
2821,0.010375977
2822,0.010681152
2823,0.013122559
2824,0.012969971
2825,0.010528564
2826,0.013122559
2827,0.015716553
2828,0.015411377
2829,0.012817383
2830,0.012969971
2831,0.013275146
2832,0.01083374
2833,0.010681152
2834,0.012969971
2835,0.015563965
2836,0.027008057
2837,0.056610107
2838,0.064697266
2839,0.061645508
2840,0.069122314
2841,0.023498535
2842,-0.009002686
2843,-0.018768311
2844,-0.011444092
2845,-0.016021729
2846,-0.023345947
2847,-0.025787354
2848,-0.020904541
2849,-0.018615723
2850,-0.013885498
2851,-0.011444092
2852,-0.008850098
2853,-0.009002686
2854,-0.049743652
2855,-0.076904297
2856,0.045013428
2857,0.52444458
2858,1.110687256
2859,0.487060547
2860,-0.204620361
2861,-0.455474854
2862,-0.374450684
2863,-0.204772949
2864,-0.119934082
2865,-0.087890625
2866,-0.067901611
2867,-0.055084229
2868,-0.040893555
2869,-0.030517578
2870,-0.018615723
2871,-0.006561279
2872,0.005493164
2873,0.015411377
2874,0.023040771
2875,0.034942627
2876,0.042114258
2877,0.05355835
2878,0.071411133
2879,0.089874268
2880,0.110931396
2881,0.134277344
2882,0.156097412
2883,0.171508789
2884,0.176391602
2885,0.171661377
2886,0.135955811
2887,0.063323975
2888,-0.024414063
2889,-0.107421875
2890,-0.164031982
2891,-0.197296143
2892,-0.212097168
2893,-0.212249756
2894,-0.204620361
2895,-0.18951416
2896,-0.173187256
2897,-0.155487061
2898,-0.139465332
2899,-0.122528076
2900,-0.106811523
2901,-0.091552734
2902,-0.077514648
2903,-0.065155029
2904,-0.055389404
2905,-0.048065186
2906,-0.040740967
2907,-0.035858154
2908,-0.030670166
2909,-0.026092529
2910,-0.023651123
2911,-0.018615723
2912,-0.016479492
2913,-0.016479492
2914,-0.018768311
2915,-0.021362305
2916,-0.018463135
2917,-0.014038086
2918,-0.013885498
2919,-0.010986328
2920,-0.009155273
2921,-0.004425049
2922,-0.001678467
2923,0.000610352
2924,-0.001678467
2925,0.000610352
2926,0.003356934
2927,0.00579834
2928,0.008087158
2929,0.012664795
2930,0.012969971
2931,0.013122559
2932,0.012817383
2933,0.013275146
2934,0.012969971
2935,0.013275146
2936,0.013275146
2937,0.013122559
2938,0.013122559
2939,0.012969971
2940,0.014648438
2941,0.015716553
2942,0.012969971
2943,0.013122559
2944,0.012969971
2945,0.012969971
2946,0.012969971
2947,0.012969971
2948,0.010528564
2949,0.012969971
2950,0.024414063
2951,0.053253174
2952,0.056610107
2953,0.06072998
2954,0.069885254
2955,0.023956299
2956,-0.006103516
2957,-0.018157959
2958,-0.013885498
2959,-0.021514893
2960,-0.028533936
2961,-0.030822754
2962,-0.031280518
2963,-0.025939941
2964,-0.021057129
2965,-0.016174316
2966,-0.016479492
2967,-0.018463135
2968,-0.074157715
2969,-0.078125
2970,0.100402832
2971,0.713653564
2972,1.024017334
2973,0.31036377
2974,-0.276641846
2975,-0.453948975
2976,-0.344848633
2977,-0.147094727
2978,-0.102539063
2979,-0.074920654
2980,-0.055389404
2981,-0.043334961
2982,-0.034332275
2983,-0.024261475
2984,-0.016174316
2985,-0.004272461
2986,0.005950928
2987,0.015106201
2988,0.02456665
2989,0.032653809
2990,0.041656494
2991,0.054016113
2992,0.069122314
2993,0.087738037
2994,0.109863281
2995,0.130462646
2996,0.14755249
2997,0.158538818
2998,0.166778564
2999,0.157775879
3000,0.113372803
3001,0.043182373
3002,-0.041809082
3003,-0.113067627
3004,-0.158233643
3005,-0.186462402
3006,-0.199890137
3007,-0.19744873
3008,-0.18951416
3009,-0.173187256
3010,-0.155487061
3011,-0.139465332
3012,-0.122070313
3013,-0.107116699
3014,-0.094451904
3015,-0.079956055
3016,-0.070037842
3017,-0.062713623
3018,-0.057830811
3019,-0.05279541
3020,-0.038909912
3021,-0.033416748
3022,-0.028686523
3023,-0.023651123
3024,-0.023498535
3025,-0.018768311
3026,-0.021362305
3027,-0.016479492
3028,-0.016326904
3029,-0.018920898
3030,-0.015869141
3031,-0.011444092
3032,-0.00869751
3033,-0.008850098
3034,-0.008850098
3035,-0.003967285
3036,-0.001525879
3037,-0.001678467
3038,0.003051758
3039,0.003356934
3040,0.003204346
3041,0.003356934
3042,0.007324219
3043,0.010681152
3044,0.008392334
3045,0.010681152
3046,0.008392334
3047,0.008239746
3048,0.010681152
3049,0.010681152
3050,0.008087158
3051,0.008392334
3052,0.009918213
3053,0.005950928
3054,0.008087158
3055,0.010528564
3056,0.013427734
3057,0.019683838
3058,0.030212402
3059,0.054321289
3060,0.04699707
3061,0.069122314
3062,0.048065186
3063,0.005340576
3064,-0.011291504
3065,-0.006561279
3066,-0.006866455
3067,-0.016326904
3068,-0.021209717
3069,-0.018768311
3070,-0.01373291
3071,-0.011138916
3072,-0.009155273
3073,-0.006561279
3074,-0.006866455
3075,-0.040588379
3076,-0.075073242
3077,0.011138916
3078,0.385437012
3079,1.027832031
3080,0.618743896
3081,0.009002686
3082,-0.375823975
3083,-0.413360596
3084,-0.266876221
3085,-0.141448975
3086,-0.093383789
3087,-0.072784424
3088,-0.054779053
3089,-0.038452148
3090,-0.030517578
3091,-0.021057129
3092,-0.016174316
3093,-0.008850098
3094,0.000305176
3095,0.010070801
3096,0.015869141
3097,0.025177002
3098,0.038909912
3099,0.051879883
3100,0.06652832
3101,0.08392334
3102,0.10559082
3103,0.127868652
3104,0.139923096
3105,0.14755249
3106,0.152130127
3107,0.12802124
3108,0.07019043
3109,-0.000915527
3110,-0.074310303
3111,-0.13092041
3112,-0.163116455
3113,-0.180053711
3114,-0.184783936
3115,-0.172729492
3116,-0.15625
3117,-0.143585205
3118,-0.126495361
3119,-0.111694336
3120,-0.095062256
3121,-0.082397461
3122,-0.068664551
3123,-0.057678223
3124,-0.050506592
3125,-0.045471191
3126,-0.038146973
3127,-0.030822754
3128,-0.025939941
3129,-0.023498535
3130,-0.021514893
3131,-0.018463135
3132,-0.018615723
3133,-0.018615723
3134,-0.018768311
3135,-0.018615723
3136,-0.012054443
3137,-0.009155273
3138,-0.00869751
3139,-0.006256104
3140,-0.006561279
3141,-0.006561279
3142,-0.003662109
3143,-0.001525879
3144,0.000915527
3145,0.001220703
3146,0.003356934
3147,0.005950928
3148,0.005645752
3149,0.003814697
3150,0.003204346
3151,0.003356934
3152,0.00579834
3153,0.00579834
3154,0.008544922
3155,0.012969971
3156,0.015258789
3157,0.012969971
3158,0.015716553
3159,0.018157959
3160,0.022277832
3161,0.034637451
3162,0.057220459
3163,0.052185059
3164,0.073699951
3165,0.052337646
3166,0.00869751
3167,-0.011749268
3168,-0.009002686
3169,-0.011291504
3170,-0.021362305
3171,-0.025939941
3172,-0.023498535
3173,-0.023498535
3174,-0.018920898
3175,-0.016326904
3176,-0.011291504
3177,-0.00869751
3178,-0.040588379
3179,-0.077972412
3180,0.012207031
3181,0.391998291
3182,1.049804688
3183,0.61050415
3184,-0.045471191
3185,-0.411376953
3186,-0.412902832
3187,-0.254211426
3188,-0.133514404
3189,-0.089416504
3190,-0.065612793
3191,-0.047607422
3192,-0.033416748
3193,-0.024261475
3194,-0.016326904
3195,-0.004272461
3196,0.00579834
3197,0.013275146
3198,0.020904541
3199,0.027770996
3200,0.037689209
3201,0.052185059
3202,0.06362915
3203,0.084075928
3204,0.108337402
3205,0.131835938
3206,0.14755249
3207,0.1612854
3208,0.166778564
3209,0.164489746
3210,0.135650635
3211,0.06729126
3212,-0.01739502
3213,-0.095672607
3214,-0.153045654
3215,-0.190734863
3216,-0.207214355
3217,-0.206756592
3218,-0.195465088
3219,-0.182495117
3220,-0.165252686
3221,-0.148468018
3222,-0.130615234
3223,-0.113677979
3224,-0.097045898
3225,-0.082092285
3226,-0.07019043
3227,-0.05859375
3228,-0.052642822
3229,-0.045166016
3230,-0.037994385
3231,-0.03326416
3232,-0.028686523
3233,-0.026245117
3234,-0.023651123
3235,-0.023803711
3236,-0.021057129
3237,-0.018615723
3238,-0.018463135
3239,-0.016326904
3240,-0.013885498
3241,-0.011138916
3242,-0.010986328
3243,-0.011444092
3244,-0.008850098
3245,-0.006408691
3246,-0.003662109
3247,-0.003814697
3248,-0.001831055
3249,0.001068115
3250,0.003204346
3251,0.003509521
3252,0.005187988
3253,0.003204346
3254,0.005645752
3255,0.008239746
3256,0.008544922
3257,0.008239746
3258,0.008087158
3259,0.010375977
3260,0.008239746
3261,0.010681152
3262,0.010681152
3263,0.010681152
3264,0.008239746
3265,0.01083374
3266,0.010528564
3267,0.010681152
3268,0.010528564
3269,0.019683838
3270,0.049438477
3271,0.063934326
3272,0.061035156
3273,0.076904297
3274,0.035552979
3275,-0.003356934
3276,-0.018615723
3277,-0.01373291
3278,-0.018768311
3279,-0.026092529
3280,-0.025939941
3281,-0.023651123
3282,-0.018920898
3283,-0.016326904
3284,-0.01373291
3285,-0.013885498
3286,-0.016937256
3287,-0.072021484
3288,-0.056304932
3289,0.161590576
3290,0.798492432
3291,0.989532471
3292,0.224914551
3293,-0.340881348
3294,-0.453643799
3295,-0.316467285
3296,-0.166778564
3297,-0.104827881
3298,-0.078125
3299,-0.059661865
3300,-0.046234131
3301,-0.035858154
3302,-0.025634766
3303,-0.016174316
3304,-0.006561279
3305,0.005493164
3306,0.016021729
3307,0.027770996
3308,0.039215088
3309,0.04486084
3310,0.061187744
3311,0.078887939
3312,0.10055542
3313,0.122833252
3314,0.145111084
3315,0.164031982
3316,0.178833008
3317,0.178985596
3318,0.159454346
3319,0.104217529
3320,0.021514893
3321,-0.06652832
3322,-0.138092041
3323,-0.186767578
3324,-0.211791992
3325,-0.219268799
3326,-0.212860107
3327,-0.2003479
3328,-0.184783936
3329,-0.166015625
3330,-0.148925781
3331,-0.133361816
3332,-0.114593506
3333,-0.097503662
3334,-0.084838867
3335,-0.072784424
3336,-0.064849854
3337,-0.053253174
3338,-0.045776367
3339,-0.038452148
3340,-0.033569336
3341,-0.030822754
3342,-0.026245117
3343,-0.023651123
3344,-0.018615723
3345,-0.018768311
3346,-0.016479492
3347,-0.016326904
3348,-0.014038086
3349,-0.013885498
3350,-0.011138916
3351,-0.011291504
3352,-0.009307861
3353,-0.008392334
3354,-0.003967285
3355,-0.001525879
3356,-0.001678467
3357,0.000762939
3358,0.003204346
3359,0.00579834
3360,0.00793457
3361,0.00793457
3362,0.00793457
3363,0.006103516
3364,0.00793457
3365,0.008087158
3366,0.010375977
3367,0.01083374
3368,0.008239746
3369,0.00793457
3370,0.008087158
3371,0.007781982
3372,0.008087158
3373,0.010681152
3374,0.013122559
3375,0.013122559
3376,0.012969971
3377,0.015716553
3378,0.025024414
3379,0.048828125
3380,0.06362915
3381,0.056762695
3382,0.07598877
3383,0.040435791
3384,0.003051758
3385,-0.014038086
3386,-0.006561279
3387,-0.01159668
3388,-0.023803711
3389,-0.02532959
3390,-0.020904541
3391,-0.018615723
3392,-0.016174316
3393,-0.01373291
3394,-0.011291504
3395,-0.015258789
3396,-0.070037842
3397,-0.072937012
3398,0.109405518
3399,0.711517334
3400,1.053771973
3401,0.315551758
3402,-0.29006958
3403,-0.446472168
3404,-0.327453613
3405,-0.17074585
3406,-0.104827881
3407,-0.075836182
3408,-0.05859375
3409,-0.046539307
3410,-0.035705566
3411,-0.023803711
3412,-0.016326904
3413,-0.003967285
3414,0.005950928
3415,0.015411377
3416,0.025482178
3417,0.037841797
3418,0.048675537
3419,0.061950684
3420,0.076904297
3421,0.097808838
3422,0.118408203
3423,0.140228271
3424,0.157470703
3425,0.171051025
3426,0.176696777
3427,0.159606934
3428,0.110321045
3429,0.030975342
3430,-0.057525635
3431,-0.131225586
3432,-0.182189941
3433,-0.207214355
3434,-0.216522217
3435,-0.21194458
3436,-0.201721191
3437,-0.184631348
3438,-0.165405273
3439,-0.148010254
3440,-0.13092041
3441,-0.11428833
3442,-0.099334717
3443,-0.086975098
3444,-0.074615479
3445,-0.061035156
3446,-0.050201416
3447,-0.043334961
3448,-0.038299561
3449,-0.03326416
3450,-0.025939941
3451,-0.021209717
3452,-0.016784668
3453,-0.016021729
3454,-0.013427734
3455,-0.014038086
3456,-0.011291504
3457,-0.011138916
3458,-0.013885498
3459,-0.011291504
3460,-0.012054443
3461,-0.008850098
3462,-0.006713867
3463,-0.006408691
3464,-0.004119873
3465,-0.001373291
3466,0.002441406
3467,0.005645752
3468,0.005645752
3469,0.003356934
3470,0.003204346
3471,0.003662109
3472,0.00579834
3473,0.008087158
3474,0.008239746
3475,0.010528564
3476,0.008087158
3477,0.010375977
3478,0.013122559
3479,0.013122559
3480,0.013275146
3481,0.012969971
3482,0.013580322
3483,0.015411377
3484,0.01739502
3485,0.027160645
3486,0.051879883
3487,0.05859375
3488,0.056304932
3489,0.070800781
3490,0.032958984
3491,0.000305176
3492,-0.011444092
3493,-0.008850098
3494,-0.019073486
3495,-0.028381348
3496,-0.026550293
3497,-0.023956299
3498,-0.021209717
3499,-0.018615723
3500,-0.014038086
3501,-0.009002686
3502,-0.008850098
3503,-0.054473877
3504,-0.079498291
3505,0.051879883
3506,0.558624268
3507,1.102142334
3508,0.462493896
3509,-0.203399658
3510,-0.442352295
3511,-0.358581543
3512,-0.193023682
3513,-0.11428833
3514,-0.082855225
3515,-0.062103271
3516,-0.048217773
3517,-0.036010742
3518,-0.024108887
3519,-0.015716553
3520,-0.008544922
3521,0.000915527
3522,0.012359619
3523,0.020294189
3524,0.030670166
3525,0.041351318
3526,0.052032471
3527,0.068359375
3528,0.085754395
3529,0.108947754
3530,0.130767822
3531,0.149078369
3532,0.161437988
3533,0.169219971
3534,0.163879395
3535,0.121307373
3536,0.04776001
3537,-0.038146973
3538,-0.113677979
3539,-0.165100098
3540,-0.195465088
3541,-0.209503174
3542,-0.207061768
3543,-0.197143555
3544,-0.180053711
3545,-0.160980225
3546,-0.143432617
3547,-0.126647949
3548,-0.112304688
3549,-0.096893311
3550,-0.082855225
3551,-0.070648193
3552,-0.062713623
3553,-0.050354004
3554,-0.043029785
3555,-0.038299561
3556,-0.032653809
3557,-0.028533936
3558,-0.023651123
3559,-0.021362305
3560,-0.021057129
3561,-0.021209717
3562,-0.018615723
3563,-0.01663208
3564,-0.013122559
3565,-0.013580322
3566,-0.015716553
3567,-0.013885498
3568,-0.011444092
3569,-0.00869751
3570,-0.006256104
3571,-0.003967285
3572,-0.001678467
3573,0.001068115
3574,0.003051758
3575,0.001068115
3576,0.000610352
3577,0.003356934
3578,0.005645752
3579,0.005645752
3580,0.005645752
3581,0.008392334
3582,0.00579834
3583,0.008239746
3584,0.010986328
3585,0.012969971
3586,0.015563965
3587,0.015411377
3588,0.015411377
3589,0.015563965
3590,0.020446777
3591,0.023040771
3592,0.038146973
3593,0.059356689
3594,0.051422119
3595,0.071411133
3596,0.045166016
3597,0.00793457
3598,-0.008850098
3599,0.000152588
3600,-0.004272461
3601,-0.013275146
3602,-0.016174316
3603,-0.016479492
3604,-0.013275146
3605,-0.009002686
3606,-0.006561279
3607,-0.004272461
3608,-0.006713867
3609,-0.046234131
3610,-0.077514648
3611,0.01739502
3612,0.446166992
3613,1.044311523
3614,0.553436279
3615,-0.054473877
3616,-0.405731201
3617,-0.409698486
3618,-0.25100708
3619,-0.138397217
3620,-0.093994141
3621,-0.068969727
3622,-0.053405762
3623,-0.0390625
3624,-0.026092529
3625,-0.015563965
3626,-0.014038086
3627,-0.006713867
3628,0.000915527
3629,0.008239746
3630,0.018768311
3631,0.027770996
3632,0.039672852
3633,0.049591064
3634,0.063934326
3635,0.088500977
3636,0.111541748
3637,0.128326416
3638,0.139770508
3639,0.152893066
3640,0.152282715
3641,0.122375488
3642,0.06072998
3643,-0.013427734
3644,-0.082397461
3645,-0.13092041
3646,-0.1612854
3647,-0.177001953
3648,-0.175170898
3649,-0.167694092
3650,-0.155029297
3651,-0.137786865
3652,-0.121917725
3653,-0.10925293
3654,-0.09475708
3655,-0.079193115
3656,-0.07019043
3657,-0.06072998
3658,-0.052032471
3659,-0.04486084
3660,-0.03616333
3661,-0.030670166
3662,-0.028533936
3663,-0.023651123
3664,-0.023956299
3665,-0.023651123
3666,-0.021362305
3667,-0.018463135
3668,-0.023803711
3669,-0.021057129
3670,-0.016479492
3671,-0.016479492
3672,-0.01373291
3673,-0.01083374
3674,-0.009002686
3675,-0.008850098
3676,-0.006561279
3677,-0.003967285
3678,-0.003967285
3679,-0.000152588
3680,0.00793457
3681,0.005645752
3682,0.00579834
3683,0.008087158
3684,0.008087158
3685,0.008087158
3686,0.010528564
3687,0.01083374
3688,0.012969971
3689,0.020446777
3690,0.037078857
3691,0.054168701
3692,0.049591064
3693,0.063934326
3694,0.037078857
3695,-0.004730225
3696,-0.023193359
3697,-0.013885498
3698,-0.011291504
3699,-0.018615723
3700,-0.026397705
3701,-0.023651123
3702,-0.016174316
3703,-0.014038086
3704,-0.009002686
3705,-0.008850098
3706,-0.006408691
3707,-0.043792725
3708,-0.065307617
3709,0.03692627
3710,0.439910889
3711,1.033477783
3712,0.56854248
3713,-0.038452148
3714,-0.394439697
3715,-0.403442383
3716,-0.252685547
3717,-0.140228271
3718,-0.093688965
3719,-0.06942749
3720,-0.052337646
3721,-0.040740967
3722,-0.033111572
3723,-0.023803711
3724,-0.01373291
3725,-0.01159668
3726,-0.003509521
3727,0.010528564
3728,0.015716553
3729,0.021057129
3730,0.032501221
3731,0.04196167
3732,0.060272217
3733,0.078582764
3734,0.094909668
3735,0.116271973
3736,0.122680664
3737,0.127716064
3738,0.12512207
3739,0.103302002
3740,0.046691895
3741,-0.01953125
3742,-0.088195801
3743,-0.140228271
3744,-0.165863037
3745,-0.182342529
3746,-0.177764893
3747,-0.163116455
3748,-0.155944824
3749,-0.141448975
3750,-0.11932373
3751,-0.109863281
3752,-0.091552734
3753,-0.077514648
3754,-0.061950684
3755,-0.059814453
3756,-0.047302246
3757,-0.036010742
3758,-0.035705566
3759,-0.032653809
3760,-0.020751953
3761,-0.016174316
3762,-0.011901855
3763,-0.008544922
3764,-0.011444092
3765,-0.00869751
3766,-0.001373291
3767,-0.007324219
3768,-0.004425049
3769,-0.004119873
3770,-0.003967285
3771,-0.003967285
3772,-0.004119873
3773,-0.001678467
3774,-0.001831055
3775,-0.001525879
3776,0.003356934
3777,0.005950928
3778,0.005645752
3779,0.003356934
3780,0.008087158
3781,0.015716553
3782,0.02532959
3783,0.049133301
3784,0.053253174
3785,0.055084229
3786,0.06072998
3787,0.020141602
3788,-0.011138916
3789,-0.013885498
3790,-0.006561279
3791,-0.01373291
3792,-0.018768311
3793,-0.016174316
3794,-0.010528564
3795,-0.009765625
3796,-0.006561279
3797,0.001068115
3798,-0.001678467
3799,-0.009613037
3800,-0.057678223
3801,-0.021362305
3802,0.16784668
3803,0.757904053
3804,0.887908936
3805,0.29296875
3806,-0.205841064
3807,-0.414581299
3808,-0.334777832
3809,-0.181884766
3810,-0.102539063
3811,-0.073699951
3812,-0.054321289
3813,-0.040740967
3814,-0.033569336
3815,-0.026092529
3816,-0.015411377
3817,-0.011444092
3818,-0.003967285
3819,0.009460449
3820,0.014953613
3821,0.020294189
3822,0.029602051
3823,0.044250488
3824,0.052642822
3825,0.070037842
3826,0.092163086
3827,0.110168457
3828,0.121307373
3829,0.128326416
3830,0.132751465
3831,0.1171875
3832,0.07598877
3833,0.012969971
3834,-0.053405762
3835,-0.1121521
3836,-0.148162842
3837,-0.162658691
3838,-0.16784668
3839,-0.165405273
3840,-0.155944824
3841,-0.140838623
3842,-0.125427246
3843,-0.11138916
3844,-0.100708008
3845,-0.082550049
3846,-0.067901611
3847,-0.057830811
3848,-0.05065918
3849,-0.038299561
3850,-0.030822754
3851,-0.028381348
3852,-0.023803711
3853,-0.023651123
3854,-0.023651123
3855,-0.018920898
3856,-0.015869141
3857,-0.01373291
3858,-0.013885498
3859,-0.013580322
3860,-0.011138916
3861,-0.008544922
3862,-0.008850098
3863,-0.009155273
3864,-0.008850098
3865,-0.009155273
3866,-0.003967285
3867,-0.006561279
3868,-0.008850098
3869,-0.006713867
3870,-0.006408691
3871,-0.001525879
3872,-0.001373291
3873,0.00289917
3874,0.013885498
3875,0.035858154
3876,0.054321289
3877,0.053863525
3878,0.066680908
3879,0.024719238
3880,-0.010070801
3881,-0.021057129
3882,-0.006561279
3883,-0.011291504
3884,-0.020904541
3885,-0.025787354
3886,-0.02166748
3887,-0.018615723
3888,-0.011444092
3889,-0.009002686
3890,-0.006408691
3891,-0.006561279
3892,-0.046234131
3893,-0.047454834
3894,0.082244873
3895,0.529174805
3896,1.036834717
3897,0.451049805
3898,-0.150299072
3899,-0.428161621
3900,-0.373535156
3901,-0.212249756
3902,-0.115814209
3903,-0.079498291
3904,-0.05569458
3905,-0.038452148
3906,-0.025024414
3907,-0.019073486
3908,-0.009155273
3909,-0.003356934
3910,0.005493164
3911,0.015411377
3912,0.024871826
3913,0.034790039
3914,0.049438477
3915,0.061950684
3916,0.077209473
3917,0.097961426
3918,0.117645264
3919,0.134735107
3920,0.151062012
3921,0.158996582
3922,0.158538818
3923,0.139160156
3924,0.092926025
3925,0.01663208
3926,-0.065765381
3927,-0.132293701
3928,-0.176544189
3929,-0.199737549
3930,-0.204620361
3931,-0.199737549
3932,-0.188751221
3933,-0.16784668
3934,-0.152130127
3935,-0.134735107
3936,-0.121459961
3937,-0.106658936
3938,-0.092315674
3939,-0.077362061
3940,-0.061645508
3941,-0.050811768
3942,-0.038909912
3943,-0.028533936
3944,-0.026092529
3945,-0.021209717
3946,-0.018920898
3947,-0.013885498
3948,-0.011444092
3949,-0.01373291
3950,-0.014038086
3951,-0.013580322
3952,-0.013885498
3953,-0.013885498
3954,-0.01373291
3955,-0.01159668
3956,-0.00869751
3957,-0.006713867
3958,-0.003967285
3959,-0.006256104
3960,-0.006561279
3961,-0.004272461
3962,-0.001831055
3963,-0.001220703
3964,0.003509521
3965,0.005950928
3966,0.004425049
3967,0.007781982
3968,0.008239746
3969,0.008239746
3970,0.010986328
3971,0.010681152
3972,0.013122559
3973,0.013122559
3974,0.010681152
3975,0.015106201
3976,0.020141602
3977,0.030212402
3978,0.055389404
3979,0.056762695
3980,0.067138672
3981,0.065765381
3982,0.019683838
3983,-0.006103516
3984,-0.010375977
3985,-0.004882813
3986,-0.01373291
3987,-0.023498535
3988,-0.019989014
3989,-0.016326904
3990,-0.016326904
3991,-0.011444092
3992,-0.006713867
3993,-0.006713867
3994,-0.012512207
3995,-0.064849854
3996,-0.029296875
3997,0.183868408
3998,0.79864502
3999,0.933074951
4000,0.187683105
4001,-0.333862305
4002,-0.443572998
4003,-0.309906006
4004,-0.158996582
4005,-0.096282959
4006,-0.067443848
4007,-0.051879883
4008,-0.038452148
4009,-0.02822876
4010,-0.01739502
4011,-0.006256104
4012,0.003204346
4013,0.010375977
4014,0.018157959
4015,0.027770996
4016,0.039672852
4017,0.049133301
4018,0.066375732
4019,0.0831604
4020,0.104370117
4021,0.127563477
4022,0.147247314
4023,0.164031982
4024,0.174255371
4025,0.168609619
4026,0.143585205
4027,0.08895874
4028,0.00793457
4029,-0.076599121
4030,-0.145568848
4031,-0.18447876
4032,-0.207061768
4033,-0.21194458
4034,-0.204620361
4035,-0.1902771
4036,-0.175628662
4037,-0.158081055
4038,-0.141143799
4039,-0.126495361
4040,-0.109558105
4041,-0.093383789
4042,-0.079803467
4043,-0.067749023
4044,-0.055236816
4045,-0.045776367
4046,-0.037231445
4047,-0.028381348
4048,-0.023803711
4049,-0.021362305
4050,-0.018463135
4051,-0.016021729
4052,-0.014190674
4053,-0.01373291
4054,-0.014190674
4055,-0.013885498
4056,-0.014038086
4057,-0.011444092
4058,-0.011749268
4059,-0.00869751
4060,-0.008850098
4061,-0.006256104
4062,-0.004577637
4063,-0.001373291
4064,0.000762939
4065,-0.001525879
4066,0.001068115
4067,0.000915527
4068,0.003204346
4069,0.003509521
4070,0.00579834
4071,0.003509521
4072,0.003051758
4073,0.005950928
4074,0.008087158
4075,0.010681152
4076,0.008392334
4077,0.008544922
4078,0.010681152
4079,0.012969971
4080,0.013122559
4081,0.013122559
4082,0.010375977
4083,0.01083374
4084,0.010681152
4085,0.012969971
4086,0.017700195
4087,0.034790039
4088,0.060577393
4089,0.054168701
4090,0.071563721
4091,0.046539307
4092,0.003662109
4093,-0.017242432
4094,-0.014038086
4095,-0.013580322
4096,-0.021362305
4097,-0.028381348
4098,-0.028686523
4099,-0.023651123
4100,-0.021057129
4101,-0.021209717
4102,-0.016326904
4103,-0.01373291
4104,-0.026855469
4105,-0.071716309
4106,-0.01159668
4107,0.282592773
4108,0.985412598
4109,0.764770508
4110,-0.004577637
4111,-0.419464111
4112,-0.410003662
4113,-0.243682861
4114,-0.123138428
4115,-0.082397461
4116,-0.060577393
4117,-0.045318604
4118,-0.033569336
4119,-0.023651123
4120,-0.012512207
4121,-0.004119873
4122,0.008239746
4123,0.020751953
4124,0.030059814
4125,0.039215088
4126,0.049438477
4127,0.06362915
4128,0.078887939
4129,0.097198486
4130,0.118713379
4131,0.142059326
4132,0.159454346
4133,0.174560547
4134,0.178833008
4135,0.171966553
4136,0.141601563
4137,0.076904297
4138,-0.01083374
4139,-0.097351074
4140,-0.164031982
4141,-0.204162598
4142,-0.221710205
4143,-0.226593018
4144,-0.219421387
4145,-0.202484131
4146,-0.185394287
4147,-0.169219971
4148,-0.153198242
4149,-0.136413574
4150,-0.119018555
4151,-0.10055542
4152,-0.085144043
4153,-0.074920654
4154,-0.063781738
4155,-0.05065918
4156,-0.043487549
4157,-0.037231445
4158,-0.030822754
4159,-0.024871826
4160,-0.023803711
4161,-0.021057129
4162,-0.018463135
4163,-0.018920898
4164,-0.018615723
4165,-0.018463135
4166,-0.016326904
4167,-0.016174316
4168,-0.014038086
4169,-0.00869751
4170,-0.004272461
4171,-0.001831055
4172,0.000762939
4173,0.000762939
4174,0.000915527
4175,-0.001373291
4176,0.000915527
4177,0.003204346
4178,0.005645752
4179,0.010681152
4180,0.010681152
4181,0.01083374
4182,0.010528564
4183,0.010681152
4184,0.012969971
4185,0.013122559
4186,0.010375977
4187,0.010681152
4188,0.01083374
4189,0.011901855
4190,0.015411377
4191,0.015411377
4192,0.013427734
4193,0.015258789
4194,0.015411377
4195,0.015563965
4196,0.015563965
4197,0.019989014
4198,0.037231445
4199,0.06652832
4200,0.054473877
4201,0.073547363
4202,0.053710938
4203,0.011138916
4204,-0.013580322
4205,-0.014038086
4206,-0.016174316
4207,-0.026245117
4208,-0.028839111
4209,-0.028533936
4210,-0.023803711
4211,-0.018615723
4212,-0.017547607
4213,-0.014038086
4214,-0.011444092
4215,-0.024414063
4216,-0.079650879
4217,-0.025787354
4218,0.275726318
4219,0.99609375
4220,0.787658691
4221,0.003814697
4222,-0.420532227
4223,-0.416107178
4224,-0.246734619
4225,-0.131378174
4226,-0.08895874
4227,-0.070037842
4228,-0.056610107
4229,-0.041046143
4230,-0.027313232
4231,-0.016326904
4232,-0.007019043
4233,0.005645752
4234,0.018157959
4235,0.027770996
4236,0.038604736
4237,0.049438477
4238,0.059204102
4239,0.073699951
4240,0.089416504
4241,0.111846924
4242,0.136413574
4243,0.155944824
4244,0.171661377
4245,0.181427002
4246,0.180358887
4247,0.151519775
4248,0.088195801
4249,0.001525879
4250,-0.08682251
4251,-0.156555176
4252,-0.20111084
4253,-0.220184326
4254,-0.224304199
4255,-0.216674805
4256,-0.202178955
4257,-0.186157227
4258,-0.167999268
4259,-0.149841309
4260,-0.131072998
4261,-0.115356445
4262,-0.099945068
4263,-0.084686279
4264,-0.07019043
4265,-0.060424805
4266,-0.050506592
4267,-0.042266846
4268,-0.038299561
4269,-0.033416748
4270,-0.028991699
4271,-0.025939941
4272,-0.023498535
4273,-0.023803711
4274,-0.021362305
4275,-0.016326904
4276,-0.016479492
4277,-0.013885498
4278,-0.011444092
4279,-0.008544922
4280,-0.009155273
4281,-0.005187988
4282,-0.001678467
4283,0.002288818
4284,0.005645752
4285,0.006103516
4286,0.00579834
4287,0.003356934
4288,0.003051758
4289,0.00289917
4290,0.003051758
4291,0.003204346
4292,0.005493164
4293,0.008087158
4294,0.008087158
4295,0.01083374
4296,0.010375977
4297,0.011138916
4298,0.012054443
4299,0.013122559
4300,0.014953613
4301,0.012969971
4302,0.010681152
4303,0.010528564
4304,0.012817383
4305,0.013427734
4306,0.013122559
4307,0.013122559
4308,0.015869141
4309,0.025177002
4310,0.055084229
4311,0.064086914
4312,0.064086914
4313,0.074157715
4314,0.03036499
4315,-0.003662109
4316,-0.016326904
4317,-0.011138916
4318,-0.018615723
4319,-0.026245117
4320,-0.026092529
4321,-0.021057129
4322,-0.018615723
4323,-0.016326904
4324,-0.014190674
4325,-0.013885498
4326,-0.024719238
4327,-0.086975098
4328,-0.058288574
4329,0.221405029
4330,0.955352783
4331,0.854797363
4332,0.071563721
4333,-0.400695801
4334,-0.425262451
4335,-0.266113281
4336,-0.13885498
4337,-0.088806152
4338,-0.065307617
4339,-0.048065186
4340,-0.036010742
4341,-0.028533936
4342,-0.01739502
4343,-0.007629395
4344,0.000610352
4345,0.01083374
4346,0.024261475
4347,0.032501221
4348,0.039672852
4349,0.05065918
4350,0.066375732
4351,0.085906982
4352,0.106964111
4353,0.129394531
4354,0.151367188
4355,0.166625977
4356,0.178833008
4357,0.178985596
4358,0.157165527
4359,0.100708008
4360,0.015411377
4361,-0.072784424
4362,-0.144348145
4363,-0.18951416
4364,-0.218200684
4365,-0.226745605
4366,-0.223999023
4367,-0.209655762
4368,-0.188598633
4369,-0.169219971
4370,-0.149536133
4371,-0.132293701
4372,-0.114746094
4373,-0.101928711
4374,-0.087127686
4375,-0.072631836
4376,-0.062866211
4377,-0.055084229
4378,-0.048217773
4379,-0.040893555
4380,-0.035705566
4381,-0.030822754
4382,-0.026092529
4383,-0.021514893
4384,-0.018768311
4385,-0.016174316
4386,-0.016326904
4387,-0.013885498
4388,-0.011291504
4389,-0.011138916
4390,-0.011291504
4391,-0.011138916
4392,-0.009155273
4393,-0.006561279
4394,-0.001678467
4395,-0.000457764
4396,0.003051758
4397,0.003356934
4398,0.003356934
4399,0.00579834
4400,0.008087158
4401,0.008239746
4402,0.008239746
4403,0.010681152
4404,0.010375977
4405,0.008239746
4406,0.00793457
4407,0.010681152
4408,0.010528564
4409,0.01083374
4410,0.010375977
4411,0.010375977
4412,0.012817383
4413,0.013122559
4414,0.012664795
4415,0.013122559
4416,0.012817383
4417,0.010986328
4418,0.015563965
4419,0.031738281
4420,0.061645508
4421,0.056610107
4422,0.070648193
4423,0.060424805
4424,0.01663208
4425,-0.008850098
4426,-0.014190674
4427,-0.012969971
4428,-0.023345947
4429,-0.030975342
4430,-0.026092529
4431,-0.023345947
4432,-0.018768311
4433,-0.016174316
4434,-0.016174316
4435,-0.016479492
4436,-0.068664551
4437,-0.087585449
4438,0.068054199
4439,0.642242432
4440,1.076965332
4441,0.382232666
4442,-0.248565674
4443,-0.458679199
4444,-0.359954834
4445,-0.192565918
4446,-0.113067627
4447,-0.08026123
4448,-0.059204102
4449,-0.04776001
4450,-0.033721924
4451,-0.023651123
4452,-0.01373291
4453,-0.001678467
4454,0.00579834
4455,0.01083374
4456,0.021972656
4457,0.033721924
4458,0.044403076
4459,0.054016113
4460,0.070495605
4461,0.088195801
4462,0.110168457
4463,0.130157471
4464,0.1512146
4465,0.163116455
4466,0.171356201
4467,0.169219971
4468,0.133514404
4469,0.06072998
4470,-0.023956299
4471,-0.098266602
4472,-0.161437988
4473,-0.196075439
4474,-0.209655762
4475,-0.209350586
4476,-0.200195313
4477,-0.182800293
4478,-0.156555176
4479,-0.140838623
4480,-0.124206543
4481,-0.109405518
4482,-0.09475708
4483,-0.081176758
4484,-0.071258545
4485,-0.065460205
4486,-0.060424805
4487,-0.052947998
4488,-0.045318604
4489,-0.040435791
4490,-0.036010742
4491,-0.03112793
4492,-0.030975342
4493,-0.028533936
4494,-0.025939941
4495,-0.021209717
4496,-0.016174316
4497,-0.016479492
4498,-0.01083374
4499,-0.01159668
4500,-0.009155273
4501,-0.006408691
4502,-0.004119873
4503,-0.001220703
4504,0.000915527
4505,0.002593994
4506,0.003204346
4507,0.003509521
4508,0.003051758
4509,0.000762939
4510,0.005645752
4511,0.010681152
4512,0.008239746
4513,0.01083374
4514,0.010528564
4515,0.01083374
4516,0.012969971
4517,0.013275146
4518,0.010528564
4519,0.014953613
4520,0.010528564
4521,0.012207031
4522,0.010681152
4523,0.015716553
4524,0.013275146
4525,0.015258789
4526,0.02746582
4527,0.053253174
4528,0.049438477
4529,0.063018799
4530,0.063018799
4531,0.024108887
4532,-0.001373291
4533,-0.006103516
4534,-0.004119873
4535,-0.01373291
4536,-0.023040771
4537,-0.023803711
4538,-0.018768311
4539,-0.016021729
4540,-0.009307861
4541,-0.00869751
4542,-0.011444092
4543,-0.05569458
4544,-0.084381104
4545,0.018157959
4546,0.467987061
4547,1.037902832
4548,0.540771484
4549,-0.064086914
4550,-0.408935547
4551,-0.410919189
4552,-0.254669189
4553,-0.135955811
4554,-0.088500977
4555,-0.062713623
4556,-0.046539307
4557,-0.030670166
4558,-0.021057129
4559,-0.014801025
4560,-0.006561279
4561,0.000915527
4562,0.007019043
4563,0.018005371
4564,0.02746582
4565,0.03616333
4566,0.043334961
4567,0.054473877
4568,0.070800781
4569,0.088653564
4570,0.110168457
4571,0.131835938
4572,0.144805908
4573,0.152282715
4574,0.151977539
4575,0.132751465
4576,0.07598877
4577,-0.000305176
4578,-0.073852539
4579,-0.132598877
4580,-0.16784668
4581,-0.184173584
4582,-0.182342529
4583,-0.171356201
4584,-0.163116455
4585,-0.146942139
4586,-0.131530762
4587,-0.116729736
4588,-0.099639893
4589,-0.082550049
4590,-0.074920654
4591,-0.067749023
4592,-0.057830811
4593,-0.055084229
4594,-0.050354004
4595,-0.043182373
4596,-0.038452148
4597,-0.033416748
4598,-0.028533936
4599,-0.028533936
4600,-0.028686523
4601,-0.025787354
4602,-0.023803711
4603,-0.023498535
4604,-0.021209717
4605,-0.016326904
4606,-0.01373291
4607,-0.009002686
4608,-0.003814697
4609,-0.006408691
4610,-0.006408691
4611,-0.004119873
4612,-0.001373291
4613,0.000915527
4614,0.003051758
4615,0.003662109
4616,0.00579834
4617,0.005645752
4618,0.010681152
4619,0.013122559
4620,0.012969971
4621,0.013122559
4622,0.015563965
4623,0.013122559
4624,0.012969971
4625,0.017852783
4626,0.029754639
4627,0.055847168
4628,0.051879883
4629,0.068054199
4630,0.057830811
4631,0.015411377
4632,-0.011138916
4633,-0.01159668
4634,-0.00793457
4635,-0.018005371
4636,-0.026245117
4637,-0.02243042
4638,-0.02166748
4639,-0.013885498
4640,-0.01159668
4641,-0.006408691
4642,-0.012969971
4643,-0.066833496
4644,-0.066375732
4645,0.104827881
4646,0.688323975
4647,0.992889404
4648,0.343933105
4649,-0.215606689
4650,-0.442810059
4651,-0.363616943
4652,-0.193939209
4653,-0.107727051
4654,-0.073852539
4655,-0.05065918
4656,-0.0390625
4657,-0.030822754
4658,-0.016937256
4659,-0.009002686
4660,-0.001678467
4661,0.005950928
4662,0.015716553
4663,0.022735596
4664,0.034332275
4665,0.04486084
4666,0.056762695
4667,0.073242188
4668,0.090179443
4669,0.10559082
4670,0.128936768
4671,0.148925781
4672,0.157165527
4673,0.164337158
4674,0.154571533
4675,0.116271973
4676,0.046081543
4677,-0.031433105
4678,-0.107879639
4679,-0.159912109
4680,-0.187988281
4681,-0.19744873
4682,-0.197143555
4683,-0.182800293
4684,-0.168914795
4685,-0.152893066
4686,-0.13458252
4687,-0.116882324
4688,-0.099487305
4689,-0.087127686
4690,-0.073394775
4691,-0.062713623
4692,-0.055084229
4693,-0.050506592
4694,-0.045623779
4695,-0.038299561
4696,-0.033416748
4697,-0.030975342
4698,-0.028686523
4699,-0.028533936
4700,-0.026092529
4701,-0.026092529
4702,-0.023803711
4703,-0.021514893
4704,-0.021057129
4705,-0.018920898
4706,-0.018463135
4707,-0.014190674
4708,-0.008850098
4709,-0.006103516
4710,-0.004119873
4711,-0.001678467
4712,0.000152588
4713,-0.001525879
4714,-0.003814697
4715,-0.001525879
4716,0.000610352
4717,0.000915527
4718,0.003509521
4719,0.003204346
4720,0.006256104
4721,0.008239746
4722,0.00579834
4723,0.008239746
4724,0.007781982
4725,0.010986328
4726,0.013275146
4727,0.020599365
4728,0.039215088
4729,0.062103271
4730,0.054321289
4731,0.074005127
4732,0.042877197
4733,0.001373291
4734,-0.018920898
4735,-0.01373291
4736,-0.012054443
4737,-0.021209717
4738,-0.025634766
4739,-0.023651123
4740,-0.020751953
4741,-0.018615723
4742,-0.013885498
4743,-0.011291504
4744,-0.025177002
4745,-0.079956055
4746,-0.03036499
4747,0.269927979
4748,0.991516113
4749,0.80078125
4750,0.052337646
4751,-0.398864746
4752,-0.435180664
4753,-0.2784729
4754,-0.144958496
4755,-0.093078613
4756,-0.068511963
4757,-0.050201416
4758,-0.035705566
4759,-0.023956299
4760,-0.01373291
4761,-0.003814697
4762,0.00579834
4763,0.013427734
4764,0.022888184
4765,0.030059814
4766,0.039520264
4767,0.051727295
4768,0.06652832
4769,0.083770752
4770,0.103302002
4771,0.127868652
4772,0.149078369
4773,0.166015625
4774,0.176239014
4775,0.172576904
4776,0.147857666
4777,0.090332031
4778,0.006713867
4779,-0.076751709
4780,-0.145568848
4781,-0.191497803
4782,-0.21194458
4783,-0.21697998
4784,-0.209503174
4785,-0.194854736
4786,-0.178070068
4787,-0.160980225
4788,-0.143432617
4789,-0.123596191
4790,-0.107727051
4791,-0.092468262
4792,-0.079956055
4793,-0.067596436
4794,-0.057830811
4795,-0.053253174
4796,-0.045776367
4797,-0.040740967
4798,-0.035705566
4799,-0.03112793
4800,-0.028381348
4801,-0.025787354
4802,-0.023651123
4803,-0.020904541
4804,-0.021362305
4805,-0.018768311
4806,-0.018310547
4807,-0.016174316
4808,-0.016174316
4809,-0.016174316
4810,-0.01373291
4811,-0.008850098
4812,-0.006256104
4813,-0.004119873
4814,-0.003204346
4815,-0.001373291
4816,0.003051758
4817,0.00579834
4818,0.003051758
4819,0.005950928
4820,0.008544922
4821,0.010681152
4822,0.013122559
4823,0.013122559
4824,0.013122559
4825,0.012664795
4826,0.010528564
4827,0.010986328
4828,0.013275146
4829,0.019683838
4830,0.036773682
4831,0.066223145
4832,0.054321289
4833,0.069122314
4834,0.054931641
4835,0.009155273
4836,-0.011749268
4837,-0.011291504
4838,-0.009002686
4839,-0.018615723
4840,-0.023651123
4841,-0.023803711
4842,-0.021057129
4843,-0.016479492
4844,-0.011444092
4845,-0.008850098
4846,-0.014038086
4847,-0.073852539
4848,-0.07019043
4849,0.125427246
4850,0.751342773
4851,1.035003662
4852,0.288848877
4853,-0.305023193
4854,-0.451507568
4855,-0.329437256
4856,-0.171203613
4857,-0.107116699
4858,-0.08026123
4859,-0.060272217
4860,-0.045471191
4861,-0.03326416
4862,-0.023651123
4863,-0.01373291
4864,-0.004119873
4865,0.007629395
4866,0.017852783
4867,0.025482178
4868,0.034790039
4869,0.04699707
4870,0.061798096
4871,0.076751709
4872,0.094146729
4873,0.117492676
4874,0.139923096
4875,0.166168213
4876,0.174102783
4877,0.173950195
4878,0.150146484
4879,0.090026855
4880,0.006713867
4881,-0.076141357
4882,-0.142974854
4883,-0.187072754
4884,-0.205078125
4885,-0.207061768
4886,-0.199890137
4887,-0.190582275
4888,-0.17578125
4889,-0.160369873
4890,-0.144195557
4891,-0.128173828
4892,-0.109863281
4893,-0.095214844
4894,-0.080566406
4895,-0.070037842
4896,-0.063323975
4897,-0.054931641
4898,-0.048217773
4899,-0.040740967
4900,-0.03326416
4901,-0.030670166
4902,-0.028533936
4903,-0.025787354
4904,-0.026092529
4905,-0.026092529
4906,-0.026245117
4907,-0.023498535
4908,-0.018768311
4909,-0.018310547
4910,-0.016174316
4911,-0.01663208
4912,-0.016174316
4913,-0.013885498
4914,-0.013885498
4915,-0.009002686
4916,-0.006713867
4917,-0.006561279
4918,-0.001525879
4919,-0.001678467
4920,0.003356934
4921,0.00579834
4922,0.003356934
4923,0.003204346
4924,0.003356934
4925,0.003509521
4926,0.003051758
4927,0.007476807
4928,0.008239746
4929,0.008544922
4930,0.003204346
4931,0.007781982
4932,0.022735596
4933,0.032806396
4934,0.056915283
4935,0.051879883
4936,0.065917969
4937,0.057067871
4938,0.01373291
4939,-0.009307861
4940,-0.006713867
4941,-0.001678467
4942,-0.013885498
4943,-0.016021729
4944,-0.016326904
4945,-0.016174316
4946,-0.01373291
4947,-0.006256104
4948,-0.001373291
4949,-0.003662109
4950,-0.066833496
4951,-0.056610107
4952,0.109100342
4953,0.698699951
4954,0.950317383
4955,0.335388184
4956,-0.200958252
4957,-0.436096191
4958,-0.362701416
4959,-0.199279785
4960,-0.110626221
4961,-0.072784424
4962,-0.052947998
4963,-0.040740967
4964,-0.028533936
4965,-0.021057129
4966,-0.016174316
4967,0.000152588
4968,0.008239746
4969,0.013427734
4970,0.019683838
4971,0.028076172
4972,0.032653809
4973,0.045166016
4974,0.059356689
4975,0.076141357
4976,0.093383789
4977,0.115814209
4978,0.134277344
4979,0.144805908
4980,0.147247314
4981,0.140686035
4982,0.104064941
4983,0.039978027
4984,-0.030975342
4985,-0.094146729
4986,-0.138244629
4987,-0.167236328
4988,-0.170288086
4989,-0.167999268
4990,-0.157623291
4991,-0.143737793
4992,-0.13092041
4993,-0.112457275
4994,-0.099334717
4995,-0.082092285
4996,-0.072937012
4997,-0.065307617
4998,-0.053253174
4999,-0.048065186
5000,-0.038757324
5001,-0.035552979
5002,-0.03326416
5003,-0.026092529
5004,-0.023498535
5005,-0.025939941
5006,-0.021057129
5007,-0.018615723
5008,-0.018920898
5009,-0.018615723
5010,-0.016174316
5011,-0.014343262
5012,-0.008544922
5013,-0.013885498
5014,-0.006866455
5015,-0.003967285
5016,-0.006561279
5017,-0.003967285
5018,-0.006256104
5019,-0.001525879
5020,-0.003814697
5021,-0.004119873
5022,-0.001525879
5023,0.003356934
5024,0.000915527
5025,0.003356934
5026,0.003204346
5027,0.013122559
5028,0.027770996
5029,0.049591064
5030,0.044555664
5031,0.063934326
5032,0.052490234
5033,0.00869751
5034,-0.01373291
5035,-0.008850098
5036,-0.01373291
5037,-0.016021729
5038,-0.021362305
5039,-0.023498535
5040,-0.01373291
5041,-0.006866455
5042,-0.006713867
5043,-0.006561279
5044,-0.006713867
5045,-0.052337646
5046,-0.045928955
5047,0.074920654
5048,0.493774414
5049,0.966644287
5050,0.492401123
5051,-0.0390625
5052,-0.37109375
5053,-0.383605957
5054,-0.24230957
5055,-0.131225586
5056,-0.087738037
5057,-0.068359375
5058,-0.05065918
5059,-0.035247803
5060,-0.026092529
5061,-0.019073486
5062,-0.016326904
5063,-0.005950928
5064,0.000762939
5065,0.011901855
5066,0.018005371
5067,0.030212402
5068,0.037689209
5069,0.04196167
5070,0.058746338
5071,0.081176758
5072,0.099487305
5073,0.111694336
5074,0.120544434
5075,0.127410889
5076,0.125274658
5077,0.097503662
5078,0.047302246
5079,-0.009613037
5080,-0.073394775
5081,-0.115661621
5082,-0.140686035
5083,-0.155334473
5084,-0.146179199
5085,-0.143432617
5086,-0.133972168
5087,-0.121917725
5088,-0.103149414
5089,-0.086212158
5090,-0.075073242
5091,-0.065307617
5092,-0.053100586
5093,-0.04776001
5094,-0.037994385
5095,-0.038146973
5096,-0.028533936
5097,-0.023651123
5098,-0.028839111
5099,-0.023651123
5100,-0.023803711
5101,-0.019989014
5102,-0.014190674
5103,-0.01159668
5104,-0.009002686
5105,-0.009002686
5106,-0.011138916
5107,-0.011291504
5108,-0.006713867
5109,-0.008850098
5110,-0.003967285
5111,-0.001678467
5112,-0.001831055
5113,-0.001373291
5114,-0.004272461
5115,-0.001678467
5116,0.005645752
5117,0.015258789
5118,0.029144287
5119,0.049591064
5120,0.042114258
5121,0.061645508
5122,0.038757324
5123,-0.000457764
5124,-0.014038086
5125,-0.005187988
5126,-0.007629395
5127,-0.016174316
5128,-0.021362305
5129,-0.018768311
5130,-0.018768311
5131,-0.013885498
5132,-0.006256104
5133,-0.006408691
5134,-0.006713867
5135,-0.0440979
5136,-0.044708252
5137,0.072784424
5138,0.483093262
5139,0.978240967
5140,0.491027832
5141,-0.045928955
5142,-0.378417969
5143,-0.374755859
5144,-0.229492188
5145,-0.122833252
5146,-0.082397461
5147,-0.061340332
5148,-0.04196167
5149,-0.035705566
5150,-0.025787354
5151,-0.018310547
5152,-0.011138916
5153,-0.006561279
5154,0.008239746
5155,0.015411377
5156,0.025024414
5157,0.030212402
5158,0.040740967
5159,0.056304932
5160,0.071411133
5161,0.089569092
5162,0.107116699
5163,0.124053955
5164,0.130004883
5165,0.130462646
5166,0.122680664
5167,0.092468262
5168,0.034484863
5169,-0.032348633
5170,-0.092926025
5171,-0.137329102
5172,-0.160675049
5173,-0.16784668
5174,-0.172729492
5175,-0.161743164
5176,-0.145874023
5177,-0.133361816
5178,-0.118865967
5179,-0.101928711
5180,-0.088500977
5181,-0.073699951
5182,-0.063781738
5183,-0.052642822
5184,-0.045928955
5185,-0.038452148
5186,-0.033111572
5187,-0.030975342
5188,-0.026245117
5189,-0.023498535
5190,-0.021057129
5191,-0.023498535
5192,-0.021057129
5193,-0.019073486
5194,-0.021209717
5195,-0.021209717
5196,-0.016326904
5197,-0.01373291
5198,-0.014038086
5199,-0.006408691
5200,-0.008850098
5201,-0.004272461
5202,-0.003967285
5203,-0.001525879
5204,0.000915527
5205,0.000915527
5206,0.001068115
5207,0.000762939
5208,0.000915527
5209,0.001068115
5210,0.003356934
5211,0.007019043
5212,0.01953125
5213,0.046844482
5214,0.052032471
5215,0.056762695
5216,0.06439209
5217,0.021514893
5218,-0.010528564
5219,-0.021209717
5220,-0.006408691
5221,-0.01373291
5222,-0.023345947
5223,-0.021057129
5224,-0.018615723
5225,-0.018768311
5226,-0.014038086
5227,-0.011291504
5228,-0.01159668
5229,-0.009002686
5230,-0.051422119
5231,-0.051727295
5232,0.098876953
5233,0.569763184
5234,1.016235352
5235,0.399017334
5236,-0.184936523
5237,-0.435180664
5238,-0.367279053
5239,-0.203857422
5240,-0.110473633
5241,-0.077972412
5242,-0.057678223
5243,-0.039520264
5244,-0.028686523
5245,-0.019073486
5246,-0.010986328
5247,-0.001525879
5248,0.004882813
5249,0.014343262
5250,0.027923584
5251,0.035095215
5252,0.044403076
5253,0.06072998
5254,0.08102417
5255,0.08605957
5256,0.086212158
5257,0.143585205
5258,0.157165527
5259,0.162200928
5260,0.155029297
5261,0.130615234
5262,0.072631836
5263,-0.002746582
5264,-0.081176758
5265,-0.146942139
5266,-0.184783936
5267,-0.206298828
5268,-0.209350586
5269,-0.202331543
5270,-0.187530518
5271,-0.168914795
5272,-0.15335083
5273,-0.141906738
5274,-0.124053955
5275,-0.107879639
5276,-0.089416504
5277,-0.074005127
5278,-0.060577393
5279,-0.046234131
5280,-0.036010742
5281,-0.033721924
5282,-0.028381348
5283,-0.023651123
5284,-0.023956299
5285,-0.018615723
5286,-0.021209717
5287,-0.021514893
5288,-0.018463135
5289,-0.01739502
5290,-0.016479492
5291,-0.013885498
5292,-0.014038086
5293,-0.01159668
5294,-0.011291504
5295,-0.01159668
5296,-0.009155273
5297,-0.007476807
5298,-0.006408691
5299,-0.004119873
5300,-0.003967285
5301,0.001983643
5302,0.005950928
5303,0.00579834
5304,0.005950928
5305,0.008087158
5306,0.012969971
5307,0.010528564
5308,0.01083374
5309,0.013122559
5310,0.015258789
5311,0.015563965
5312,0.015563965
5313,0.015411377
5314,0.015716553
5315,0.015869141
5316,0.018310547
5317,0.015716553
5318,0.015563965
5319,0.018005371
5320,0.018005371
5321,0.020294189
5322,0.027618408
5323,0.058746338
5324,0.055541992
5325,0.060272217
5326,0.05065918
5327,0.007019043
5328,-0.017547607
5329,-0.014953613
5330,-0.006561279
5331,-0.013580322
5332,-0.023498535
5333,-0.023803711
5334,-0.021209717
5335,-0.01663208
5336,-0.012054443
5337,-0.008850098
5338,-0.006256104
5339,-0.011291504
5340,-0.064239502
5341,-0.030975342
5342,0.186004639
5343,0.813598633
5344,0.942077637
5345,0.174102783
5346,-0.353088379
5347,-0.434265137
5348,-0.292663574
5349,-0.146026611
5350,-0.089569092
5351,-0.065155029
5352,-0.048370361
5353,-0.036010742
5354,-0.026245117
5355,-0.01373291
5356,-0.001831055
5357,0.010528564
5358,0.018005371
5359,0.027770996
5360,0.034942627
5361,0.044708252
5362,0.056152344
5363,0.072631836
5364,0.090637207
5365,0.110321045
5366,0.131530762
5367,0.151977539
5368,0.169372559
5369,0.178985596
5370,0.174102783
5371,0.150756836
5372,0.095062256
5373,0.015716553
5374,-0.07232666
5375,-0.14465332
5376,-0.200958252
5377,-0.221405029
5378,-0.231628418
5379,-0.223846436
5380,-0.207366943
5381,-0.19241333
5382,-0.175628662
5383,-0.156707764
5384,-0.141143799
5385,-0.119781494
5386,-0.104370117
5387,-0.085906982
5388,-0.072479248
5389,-0.062713623
5390,-0.05065918
5391,-0.043182373
5392,-0.036010742
5393,-0.03326416
5394,-0.025634766
5395,-0.021209717
5396,-0.021057129
5397,-0.018615723
5398,-0.021057129
5399,-0.021209717
5400,-0.021209717
5401,-0.018463135
5402,-0.018920898
5403,-0.016326904
5404,-0.014190674
5405,-0.01373291
5406,-0.011444092
5407,-0.006408691
5408,-0.006561279
5409,-0.004272461
5410,0.000762939
5411,0.000610352
5412,0.003356934
5413,0.003051758
5414,0.003509521
5415,0.005493164
5416,0.008087158
5417,0.011901855
5418,0.013122559
5419,0.012664795
5420,0.012817383
5421,0.013122559
5422,0.013122559
5423,0.012969971
5424,0.013275146
5425,0.012969971
5426,0.013122559
5427,0.01083374
5428,0.01083374
5429,0.010681152
5430,0.012969971
5431,0.015563965
5432,0.015716553
5433,0.013275146
5434,0.020446777
5435,0.040740967
5436,0.064086914
5437,0.051879883
5438,0.067443848
5439,0.038757324
5440,-0.003814697
5441,-0.023803711
5442,-0.012512207
5443,-0.01373291
5444,-0.023651123
5445,-0.030975342
5446,-0.030822754
5447,-0.020751953
5448,-0.014190674
5449,-0.012664795
5450,-0.009155273
5451,-0.008850098
5452,-0.038452148
5453,-0.072479248
5454,0.02746582
5455,0.425109863
5456,1.097412109
5457,0.580291748
5458,-0.159912109
5459,-0.452880859
5460,-0.376281738
5461,-0.205993652
5462,-0.115966797
5463,-0.077819824
5464,-0.058288574
5465,-0.045623779
5466,-0.037994385
5467,-0.023651123
5468,-0.011291504
5469,-0.001983643
5470,0.00793457
5471,0.018005371
5472,0.032958984
5473,0.044403076
5474,0.054168701
5475,0.071105957
5476,0.085906982
5477,0.105438232
5478,0.127563477
5479,0.149536133
5480,0.166931152
5481,0.178070068
5482,0.176391602
5483,0.162811279
5484,0.117950439
5485,0.043640137
5486,-0.043029785
5487,-0.122833252
5488,-0.181121826
5489,-0.213165283
5490,-0.226745605
5491,-0.226898193
5492,-0.216674805
5493,-0.20324707
5494,-0.186004639
5495,-0.165557861
5496,-0.146942139
5497,-0.129089355
5498,-0.112609863
5499,-0.093688965
5500,-0.079803467
5501,-0.067596436
5502,-0.057678223
5503,-0.048065186
5504,-0.040893555
5505,-0.035705566
5506,-0.033721924
5507,-0.02822876
5508,-0.025787354
5509,-0.023651123
5510,-0.023803711
5511,-0.020904541
5512,-0.021362305
5513,-0.020904541
5514,-0.018463135
5515,-0.016174316
5516,-0.014038086
5517,-0.01159668
5518,-0.009002686
5519,-0.004272461
5520,-0.003967285
5521,-0.003814697
5522,-0.001678467
5523,0.000610352
5524,0.000915527
5525,0.000457764
5526,0.003051758
5527,0.003051758
5528,0.008087158
5529,0.008239746
5530,0.005950928
5531,0.00793457
5532,0.010528564
5533,0.010681152
5534,0.012969971
5535,0.012969971
5536,0.012817383
5537,0.013122559
5538,0.013122559
5539,0.01083374
5540,0.010986328
5541,0.008239746
5542,0.01083374
5543,0.010681152
5544,0.01083374
5545,0.012054443
5546,0.015563965
5547,0.032196045
5548,0.067596436
5549,0.059356689
5550,0.071258545
5551,0.063018799
5552,0.014648438
5553,-0.01373291
5554,-0.017242432
5555,-0.016326904
5556,-0.023956299
5557,-0.030822754
5558,-0.030975342
5559,-0.027008057
5560,-0.023498535
5561,-0.019073486
5562,-0.016174316
5563,-0.013580322
5564,-0.043182373
5565,-0.084533691
5566,0.005950928
5567,0.40512085
5568,1.101226807
5569,0.609130859
5570,-0.130157471
5571,-0.447540283
5572,-0.384674072
5573,-0.213317871
5574,-0.118103027
5575,-0.079803467
5576,-0.060424805
5577,-0.046081543
5578,-0.035400391
5579,-0.021514893
5580,-0.01159668
5581,-0.004272461
5582,0.004882813
5583,0.015563965
5584,0.027618408
5585,0.037841797
5586,0.052185059
5587,0.061798096
5588,0.076446533
5589,0.076141357
5590,0.076599121
5591,0.13168335
5592,0.161895752
5593,0.176544189
5594,0.183868408
5595,0.179443359
5596,0.1512146
5597,0.088653564
5598,0.003814697
5599,-0.082550049
5600,-0.15335083
5601,-0.19821167
5602,-0.22064209
5603,-0.226593018
5604,-0.216827393
5605,-0.202026367
5606,-0.185394287
5607,-0.165557861
5608,-0.14831543
5609,-0.131530762
5610,-0.114440918
5611,-0.090942383
5612,-0.077514648
5613,-0.065002441
5614,-0.065307617
5615,-0.050811768
5616,-0.041656494
5617,-0.035705566
5618,-0.033569336
5619,-0.028533936
5620,-0.025939941
5621,-0.023498535
5622,-0.020904541
5623,-0.023956299
5624,-0.018310547
5625,-0.016174316
5626,-0.016021729
5627,-0.016479492
5628,-0.01373291
5629,-0.01159668
5630,-0.010375977
5631,-0.003967285
5632,-0.006561279
5633,-0.006713867
5634,-0.004272461
5635,-0.001831055
5636,0.000762939
5637,0.000915527
5638,0.003204346
5639,0.003356934
5640,0.005493164
5641,0.003509521
5642,0.008239746
5643,0.012969971
5644,0.013122559
5645,0.013122559
5646,0.011901855
5647,0.012817383
5648,0.012969971
5649,0.013122559
5650,0.013427734
5651,0.013122559
5652,0.013122559
5653,0.012969971
5654,0.015563965
5655,0.015869141
5656,0.015563965
5657,0.015563965
5658,0.013122559
5659,0.013122559
5660,0.024414063
5661,0.052947998
5662,0.064239502
5663,0.060577393
5664,0.074157715
5665,0.0340271
5666,-0.0050354
5667,-0.018615723
5668,-0.01373291
5669,-0.020904541
5670,-0.032958984
5671,-0.033569336
5672,-0.028533936
5673,-0.023651123
5674,-0.018615723
5675,-0.01663208
5676,-0.016326904
5677,-0.029754639
5678,-0.088348389
5679,-0.054321289
5680,0.234832764
5681,0.970611572
5682,0.847930908
5683,0.072937012
5684,-0.396270752
5685,-0.434570313
5686,-0.216064453
5687,-0.120391846
5688,-0.08392334
5689,-0.062713623
5690,-0.048217773
5691,-0.039520264
5692,-0.025787354
5693,-0.016326904
5694,-0.006866455
5695,0.005645752
5696,0.015869141
5697,0.02532959
5698,0.032653809
5699,0.044555664
5700,0.056610107
5701,0.071258545
5702,0.088348389
5703,0.111846924
5704,0.136413574
5705,0.158233643
5706,0.171661377
5707,0.183868408
5708,0.179290771
5709,0.152435303
5710,0.088806152
5711,0.003509521
5712,-0.083007813
5713,-0.149536133
5714,-0.191955566
5715,-0.216674805
5716,-0.224304199
5717,-0.215148926
5718,-0.204467773
5719,-0.187530518
5720,-0.17074585
5721,-0.151977539
5722,-0.135955811
5723,-0.117950439
5724,-0.101776123
5725,-0.087127686
5726,-0.071563721
5727,-0.065307617
5728,-0.05645752
5729,-0.048217773
5730,-0.041046143
5731,-0.038452148
5732,-0.031280518
5733,-0.026550293
5734,-0.026245117
5735,-0.026092529
5736,-0.023498535
5737,-0.021209717
5738,-0.018615723
5739,-0.016326904
5740,-0.018768311
5741,-0.016021729
5742,-0.009155273
5743,-0.007324219
5744,-0.006408691
5745,-0.003662109
5746,-0.003662109
5747,-0.001678467
5748,-0.001373291
5749,0.000762939
5750,0.003509521
5751,0.003356934
5752,0.005493164
5753,0.005645752
5754,0.008087158
5755,0.01083374
5756,0.010528564
5757,0.012969971
5758,0.015716553
5759,0.015563965
5760,0.013122559
5761,0.015258789
5762,0.013122559
5763,0.013122559
5764,0.012969971
5765,0.012969971
5766,0.01083374
5767,0.010223389
5768,0.010681152
5769,0.01083374
5770,0.010528564
5771,0.010681152
5772,0.012817383
5773,0.013122559
5774,0.015563965
5775,0.025482178
5776,0.054016113
5777,0.052032471
5778,0.062561035
5779,0.061950684
5780,0.017089844
5781,-0.00869751
5782,-0.015106201
5783,-0.016479492
5784,-0.025939941
5785,-0.029754639
5786,-0.028381348
5787,-0.023803711
5788,-0.021209717
5789,-0.016326904
5790,-0.011444092
5791,-0.013885498
5792,-0.051269531
5793,-0.094451904
5794,0.003967285
5795,0.456542969
5796,1.112365723
5797,0.566711426
5798,-0.136413574
5799,-0.446472168
5800,-0.391845703
5801,-0.220947266
5802,-0.127716064
5803,-0.090026855
5804,-0.067596436
5805,-0.050811768
5806,-0.037994385
5807,-0.028533936
5808,-0.019073486
5809,-0.009307861
5810,0
5811,0.010681152
5812,0.015258789
5813,0.027313232
5814,0.037689209
5815,0.049438477
5816,0.065307617
5817,0.083465576
5818,0.104370117
5819,0.127563477
5820,0.147247314
5821,0.166320801
5822,0.176544189
5823,0.174255371
5824,0.152435303
5825,0.093536377
5826,0.008239746
5827,-0.078430176
5828,-0.14465332
5829,-0.181274414
5830,-0.202178955
5831,-0.207061768
5832,-0.200958252
5833,-0.187835693
5834,-0.171356201
5835,-0.151824951
5836,-0.135040283
5837,-0.121459961
5838,-0.104522705
5839,-0.092163086
5840,-0.079650879
5841,-0.072479248
5842,-0.060424805
5843,-0.052947998
5844,-0.048370361
5845,-0.040588379
5846,-0.033874512
5847,-0.028381348
5848,-0.026092529
5849,-0.026092529
5850,-0.023651123
5851,-0.021362305
5852,-0.021362305
5853,-0.019073486
5854,-0.016326904
5855,-0.011444092
5856,-0.009002686
5857,-0.013580322
5858,-0.01159668
5859,-0.006256104
5860,-0.006408691
5861,-0.003662109
5862,-0.001525879
5863,-0.001678467
5864,0.000457764
5865,0.005645752
5866,0.00579834
5867,0.008239746
5868,0.010681152
5869,0.005950928
5870,0.005645752
5871,0.008239746
5872,0.010528564
5873,0.01083374
5874,0.005950928
5875,0.003051758
5876,0.008239746
5877,0.008392334
5878,0.008087158
5879,0.008087158
5880,0.012969971
5881,0.01083374
5882,0.010681152
5883,0.013122559
5884,0.010681152
5885,0.010375977
5886,0.016937256
5887,0.026855469
5888,0.046844482
5889,0.047912598
5890,0.057830811
5891,0.062866211
5892,0.019073486
5893,-0.010986328
5894,-0.016326904
5895,-0.006408691
5896,-0.018463135
5897,-0.026092529
5898,-0.025939941
5899,-0.023498535
5900,-0.016784668
5901,-0.016174316
5902,-0.013275146
5903,-0.010986328
5904,-0.043029785
5905,-0.086975098
5906,-0.015563965
5907,0.363769531
5908,0.971069336
5909,0.968933105
5910,0.119476318
5911,-0.331726074
5912,-0.426940918
5913,-0.284576416
5914,-0.152740479
5915,-0.101013184
5916,-0.071258545
5917,-0.055541992
5918,-0.043334961
5919,-0.036010742
5920,-0.026245117
5921,-0.021362305
5922,-0.011444092
5923,-0.004119873
5924,0.007171631
5925,0.01739502
5926,0.027923584
5927,0.031433105
5928,0.039825439
5929,0.056915283
5930,0.078582764
5931,0.098266602
5932,0.11932373
5933,0.136566162
5934,0.144500732
5935,0.144958496
5936,0.131072998
5937,0.08605957
5938,0.01739502
5939,-0.056152344
5940,-0.113067627
5941,-0.155487061
5942,-0.176391602
5943,-0.182647705
5944,-0.180206299
5945,-0.165405273
5946,-0.150756836
5947,-0.134429932
5948,-0.119171143
5949,-0.104370117
5950,-0.093078613
5951,-0.082244873
5952,-0.074920654
5953,-0.065002441
5954,-0.057678223
5955,-0.051269531
5956,-0.050354004
5957,-0.050506592
5958,-0.043487549
5959,-0.037841797
5960,-0.03112793
5961,-0.028381348
5962,-0.026397705
5963,-0.021057129
5964,-0.018768311
5965,-0.018615723
5966,-0.014190674
5967,-0.014038086
5968,-0.011291504
5969,-0.004272461
5970,-0.004119873
5971,0.000762939
5972,0.003356934
5973,0.003356934
5974,0.003509521
5975,0.004425049
5976,0.003204346
5977,0.008087158
5978,0.015563965
5979,0.015411377
5980,0.013122559
5981,0.011901855
5982,0.015563965
5983,0.012969971
5984,0.013275146
5985,0.018157959
5986,0.015869141
5987,0.017852783
5988,0.017852783
5989,0.017700195
5990,0.02532959
5991,0.03036499
5992,0.043334961
5993,0.061645508
5994,0.056762695
5995,0.073852539
5996,0.043029785
5997,0.006561279
5998,-0.006408691
5999,0.003204346
6000,-0.005493164
6001,-0.012664795
6002,-0.016174316
6003,-0.011291504
6004,-0.010070801
6005,-0.003967285
6006,-0.006561279
6007,-0.004272461
6008,-0.019836426
6009,-0.074768066
6010,-0.022277832
6011,0.240936279
6012,0.911865234
6013,0.791320801
6014,0.178527832
6015,-0.288848877
6016,-0.425872803
6017,-0.317993164
6018,-0.17288208
6019,-0.105743408
6020,-0.074615479
6021,-0.054321289
6022,-0.04196167
6023,-0.03112793
6024,-0.021209717
6025,-0.009002686
6026,-0.003814697
6027,0.003356934
6028,0.013275146
6029,0.020446777
6030,0.025634766
6031,0.037689209
6032,0.050811768
6033,0.066680908
6034,0.0831604
6035,0.099945068
6036,0.125427246
6037,0.141601563
6038,0.147247314
6039,0.149993896
6040,0.136260986
6041,0.099334717
6042,0.0390625
6043,-0.038452148
6044,-0.100708008
6045,-0.140991211
6046,-0.164489746
6047,-0.170135498
6048,-0.162963867
6049,-0.156707764
6050,-0.146179199
6051,-0.127258301
6052,-0.110168457
6053,-0.095825195
6054,-0.084686279
6055,-0.077819824
6056,-0.067443848
6057,-0.058135986
6058,-0.04699707
6059,-0.040893555
6060,-0.038299561
6061,-0.035552979
6062,-0.030822754
6063,-0.026092529
6064,-0.020904541
6065,-0.022125244
6066,-0.018615723
6067,-0.018615723
6068,-0.018920898
6069,-0.011291504
6070,-0.011444092
6071,-0.009307861
6072,-0.006408691
6073,-0.001220703
6074,-0.001831055
6075,-0.003814697
6076,0.000915527
6077,0.000915527
6078,0.003356934
6079,0.005645752
6080,0.005645752
6081,0.005493164
6082,0.005645752
6083,0.005493164
6084,0.005340576
6085,0.008392334
6086,0.010375977
6087,0.010681152
6088,0.008239746
6089,0.008239746
6090,0.01083374
6091,0.012969971
6092,0.015716553
6093,0.022583008
6094,0.048828125
6095,0.049591064
6096,0.063323975
6097,0.060424805
6098,0.021514893
6099,-0.008850098
6100,-0.012512207
6101,-0.009002686
6102,-0.018920898
6103,-0.023803711
6104,-0.025939941
6105,-0.021057129
6106,-0.016326904
6107,-0.009155273
6108,-0.006408691
6109,-0.011444092
6110,-0.054321289
6111,-0.072631836
6112,0.038604736
6113,0.450439453
6114,1.009674072
6115,0.527954102
6116,-0.055389404
6117,-0.403747559
6118,-0.407104492
6119,-0.25177002
6120,-0.138092041
6121,-0.095367432
6122,-0.070800781
6123,-0.05065918
6124,-0.037994385
6125,-0.029296875
6126,-0.021057129
6127,-0.01159668
6128,-0.002593994
6129,0.008239746
6130,0.010681152
6131,0.018005371
6132,0.025024414
6133,0.0390625
6134,0.051879883
6135,0.06942749
6136,0.094909668
6137,0.113372803
6138,0.133972168
6139,0.143890381
6140,0.147399902
6141,0.135955811
6142,0.097351074
6143,0.041503906
6144,-0.020141602
6145,-0.093841553
6146,-0.149841309
6147,-0.18157959
6148,-0.194854736
6149,-0.194702148
6150,-0.185852051
6151,-0.168914795
6152,-0.150909424
6153,-0.133514404
6154,-0.116271973
6155,-0.102233887
6156,-0.089874268
6157,-0.077667236
6158,-0.067596436
6159,-0.056304932
6160,-0.050506592
6161,-0.045623779
6162,-0.040588379
6163,-0.038146973
6164,-0.030670166
6165,-0.025939941
6166,-0.023803711
6167,-0.025939941
6168,-0.02456665
6169,-0.018463135
6170,-0.016174316
6171,-0.016326904
6172,-0.011444092
6173,-0.008544922
6174,-0.009002686
6175,-0.003967285
6176,-0.006103516
6177,-0.003814697
6178,-0.001678467
6179,-0.004119873
6180,0.000915527
6181,0.003051758
6182,-0.001678467
6183,0.003204346
6184,0.003356934
6185,0.006103516
6186,0.007324219
6187,0.008087158
6188,0.01083374
6189,0.013122559
6190,0.01083374
6191,0.013275146
6192,0.015716553
6193,0.015411377
6194,0.012817383
6195,0.015869141
6196,0.017852783
6197,0.023040771
6198,0.037231445
6199,0.056762695
6200,0.051574707
6201,0.073547363
6202,0.055084229
6203,0.011444092
6204,-0.008850098
6205,-0.006561279
6206,-0.009002686
6207,-0.018920898
6208,-0.023651123
6209,-0.020904541
6210,-0.018768311
6211,-0.016479492
6212,-0.011444092
6213,-0.008850098
6214,-0.012817383
6215,-0.066680908
6216,-0.061187744
6217,0.095367432
6218,0.616455078
6219,1.002960205
6220,0.368347168
6221,-0.200958252
6222,-0.438079834
6223,-0.368652344
6224,-0.20904541
6225,-0.117950439
6226,-0.079956055
6227,-0.060424805
6228,-0.045623779
6229,-0.035705566
6230,-0.023651123
6231,-0.008850098
6232,-0.001373291
6233,0.004730225
6234,0.012359619
6235,0.022888184
6236,0.034332275
6237,0.044250488
6238,0.057220459
6239,0.073852539
6240,0.095062256
6241,0.11428833
6242,0.136260986
6243,0.156555176
6244,0.166931152
6245,0.166473389
6246,0.150604248
6247,0.106811523
6248,0.030059814
6249,-0.053253174
6250,-0.125274658
6251,-0.174407959
6252,-0.206451416
6253,-0.216674805
6254,-0.214233398
6255,-0.199737549
6256,-0.182952881
6257,-0.166625977
6258,-0.14831543
6259,-0.128936768
6260,-0.114135742
6261,-0.097198486
6262,-0.084533691
6263,-0.07232666
6264,-0.060424805
6265,-0.050964355
6266,-0.045318604
6267,-0.041046143
6268,-0.033721924
6269,-0.029296875
6270,-0.023956299
6271,-0.016937256
6272,-0.015869141
6273,-0.013885498
6274,-0.01373291
6275,-0.013885498
6276,-0.013580322
6277,-0.009002686
6278,-0.006256104
6279,-0.006408691
6280,-0.006408691
6281,-0.001831055
6282,0.000915527
6283,0.003204346
6284,0.00579834
6285,0.008544922
6286,0.008392334
6287,0.012969971
6288,0.015716553
6289,0.015869141
6290,0.015411377
6291,0.015411377
6292,0.018005371
6293,0.018157959
6294,0.018005371
6295,0.020446777
6296,0.020294189
6297,0.020599365
6298,0.020446777
6299,0.020446777
6300,0.020446777
6301,0.018310547
6302,0.020141602
6303,0.020294189
6304,0.018005371
6305,0.017852783
6306,0.017852783
6307,0.017700195
6308,0.015716553
6309,0.023040771
6310,0.048370361
6311,0.059051514
6312,0.056762695
6313,0.070037842
6314,0.031280518
6315,-0.001525879
6316,-0.016174316
6317,-0.008850098
6318,-0.017852783
6319,-0.023651123
6320,-0.026092529
6321,-0.020904541
6322,-0.018615723
6323,-0.014038086
6324,-0.009765625
6325,-0.006866455
6326,-0.01373291
6327,-0.066986084
6328,-0.038909912
6329,0.186309814
6330,0.830993652
6331,0.948944092
6332,0.195922852
6333,-0.335540771
6334,-0.436248779
6335,-0.299224854
6336,-0.153045654
6337,-0.097808838
6338,-0.073242188
6339,-0.056304932
6340,-0.040435791
6341,-0.02822876
6342,-0.018768311
6343,-0.009307861
6344,0.002288818
6345,0.010528564
6346,0.020446777
6347,0.029144287
6348,0.039520264
6349,0.051727295
6350,0.065612793
6351,0.08102417
6352,0.107574463
6353,0.132598877
6354,0.154724121
6355,0.171813965
6356,0.179290771
6357,0.175323486
6358,0.155792236
6359,0.102844238
6360,0.036315918
6361,-0.051879883
6362,-0.126953125
6363,-0.182647705
6364,-0.216674805
6365,-0.231323242
6366,-0.229949951
6367,-0.21774292
6368,-0.202026367
6369,-0.182495117
6370,-0.160217285
6371,-0.143280029
6372,-0.12878418
6373,-0.111694336
6374,-0.094604492
6375,-0.079803467
6376,-0.065307617
6377,-0.055847168
6378,-0.05065918
6379,-0.043182373
6380,-0.0390625
6381,-0.035552979
6382,-0.030822754
6383,-0.025634766
6384,-0.021209717
6385,-0.021209717
6386,-0.021209717
6387,-0.021209717
6388,-0.021057129
6389,-0.016174316
6390,-0.01159668
6391,-0.011444092
6392,-0.011138916
6393,-0.008392334
6394,-0.005950928
6395,-0.006561279
6396,-0.006713867
6397,-0.004119873
6398,-0.004119873
6399,-0.001220703
6400,0.000457764
6401,0.003356934
6402,0.003204346
6403,0.00579834
6404,0.005645752
6405,0.00579834
6406,0.00579834
6407,0.008239746
6408,0.00793457
6409,0.008392334
6410,0.010528564
6411,0.01083374
6412,0.01083374
6413,0.013275146
6414,0.013122559
6415,0.012817383
6416,0.012817383
6417,0.012969971
6418,0.010681152
6419,0.012664795
6420,0.013122559
6421,0.013275146
6422,0.013275146
6423,0.013275146
6424,0.015258789
6425,0.015869141
6426,0.022125244
6427,0.043945313
6428,0.064086914
6429,0.059204102
6430,0.076293945
6431,0.036315918
6432,-0.001373291
6433,-0.01663208
6434,-0.013885498
6435,-0.018310547
6436,-0.028076172
6437,-0.030975342
6438,-0.028381348
6439,-0.026092529
6440,-0.018615723
6441,-0.014038086
6442,-0.013580322
6443,-0.015563965
6444,-0.069274902
6445,-0.068664551
6446,0.118713379
6447,0.719909668
6448,1.045227051
6449,0.296783447
6450,-0.311889648
6451,-0.454711914
6452,-0.32699585
6453,-0.169677734
6454,-0.105285645
6455,-0.077362061
6456,-0.057525635
6457,-0.045318604
6458,-0.033111572
6459,-0.023803711
6460,-0.013427734
6461,-0.001678467
6462,0.008239746
6463,0.017700195
6464,0.02746582
6465,0.037689209
6466,0.049438477
6467,0.064086914
6468,0.081176758
6469,0.102233887
6470,0.125427246
6471,0.149841309
6472,0.16708374
6473,0.176849365
6474,0.179138184
6475,0.16708374
6476,0.126342773
6477,0.053863525
6478,-0.03616333
6479,-0.117034912
6480,-0.177001953
6481,-0.213775635
6482,-0.228881836
6483,-0.229034424
6484,-0.219116211
6485,-0.202331543
6486,-0.184936523
6487,-0.166473389
6488,-0.149230957
6489,-0.131072998
6490,-0.11505127
6491,-0.096588135
6492,-0.082244873
6493,-0.071105957
6494,-0.063781738
6495,-0.052642822
6496,-0.043334961
6497,-0.038146973
6498,-0.033416748
6499,-0.028381348
6500,-0.028533936
6501,-0.026092529
6502,-0.023498535
6503,-0.023498535
6504,-0.021209717
6505,-0.018768311
6506,-0.013885498
6507,-0.013885498
6508,-0.01159668
6509,-0.008850098
6510,-0.006103516
6511,-0.006408691
6512,-0.001525879
6513,-0.001525879
6514,0.003051758
6515,0.003204346
6516,0.003509521
6517,0.005950928
6518,0.008544922
6519,0.01083374
6520,0.010681152
6521,0.008087158
6522,0.010681152
6523,0.010681152
6524,0.010681152
6525,0.010528564
6526,0.013427734
6527,0.01083374
6528,0.012969971
6529,0.012969971
6530,0.015411377
6531,0.017089844
6532,0.018157959
6533,0.017700195
6534,0.015106201
6535,0.01373291
6536,0.01159668
6537,0.008239746
6538,0.01083374
6539,0.010528564
6540,0.01083374
6541,0.015411377
6542,0.026855469
6543,0.058898926
6544,0.054321289
6545,0.058441162
6546,0.055236816
6547,0.008850098
6548,-0.015411377
6549,-0.018463135
6550,-0.01373291
6551,-0.023803711
6552,-0.030822754
6553,-0.030822754
6554,-0.024414063
6555,-0.021057129
6556,-0.016021729
6557,-0.013885498
6558,-0.013885498
6559,-0.03692627
6560,-0.087280273
6561,-0.02166748
6562,0.336761475
6563,1.06552124
6564,0.705566406
6565,-0.236358643
6566,-0.456542969
6567,-0.358581543
6568,-0.189666748
6569,-0.121307373
6570,-0.089416504
6571,-0.067596436
6572,-0.053253174
6573,-0.040588379
6574,-0.029296875
6575,-0.021209717
6576,-0.011291504
6577,-0.001525879
6578,0.01083374
6579,0.023040771
6580,0.035095215
6581,0.046386719
6582,0.058898926
6583,0.071258545
6584,0.090789795
6585,0.110626221
6586,0.134124756
6587,0.155944824
6588,0.172119141
6589,0.181427002
6590,0.179138184
6591,0.150299072
6592,0.086975098
6593,-0.000305176
6594,-0.088043213
6595,-0.159912109
6596,-0.201721191
6597,-0.223999023
6598,-0.228881836
6599,-0.221557617
6600,-0.20690918
6601,-0.185241699
6602,-0.166320801
6603,-0.146026611
6604,-0.12878418
6605,-0.111694336
6606,-0.096893311
6607,-0.084838867
6608,-0.072631836
6609,-0.062866211
6610,-0.055236816
6611,-0.050811768
6612,-0.043182373
6613,-0.035705566
6614,-0.033416748
6615,-0.028381348
6616,-0.025787354
6617,-0.023651123
6618,-0.020904541
6619,-0.021209717
6620,-0.018768311
6621,-0.016326904
6622,-0.013427734
6623,-0.008850098
6624,-0.006713867
6625,-0.006408691
6626,-0.006408691
6627,-0.003967285
6628,-0.001678467
6629,-0.001678467
6630,0.000762939
6631,0.004730225
6632,0.008087158
6633,0.008239746
6634,0.010528564
6635,0.010528564
6636,0.012969971
6637,0.012817383
6638,0.012969971
6639,0.015563965
6640,0.012969971
6641,0.012969971
6642,0.012817383
6643,0.013122559
6644,0.012969971
6645,0.012969971
6646,0.015258789
6647,0.015563965
6648,0.017852783
6649,0.018310547
6650,0.018463135
6651,0.013122559
6652,0.012817383
6653,0.010681152
6654,0.012969971
6655,0.012969971
6656,0.010986328
6657,0.012969971
6658,0.015411377
6659,0.027160645
6660,0.058746338
6661,0.054321289
6662,0.066680908
6663,0.057525635
6664,0.015716553
6665,-0.010528564
6666,-0.014038086
6667,-0.01373291
6668,-0.023651123
6669,-0.028381348
6670,-0.02822876
6671,-0.021972656
6672,-0.018615723
6673,-0.016174316
6674,-0.013580322
6675,-0.011138916
6676,-0.046539307
6677,-0.094146729
6678,-0.009613037
6679,0.419006348
6680,1.113891602
6681,0.615997314
6682,-0.106811523
6683,-0.438995361
6684,-0.394439697
6685,-0.22644043
6686,-0.127410889
6687,-0.087890625
6688,-0.065307617
6689,-0.050354004
6690,-0.039215088
6691,-0.028381348
6692,-0.018768311
6693,-0.007171631
6694,0.000762939
6695,0.010375977
6696,0.020294189
6697,0.027770996
6698,0.037536621
6699,0.046844482
6700,0.056762695
6701,0.075378418
6702,0.098266602
6703,0.124511719
6704,0.149688721
6705,0.166778564
6706,0.178985596
6707,0.182342529
6708,0.16204834
6709,0.106506348
6710,0.022277832
6711,-0.06439209
6712,-0.137481689
6713,-0.187530518
6714,-0.213623047
6715,-0.218811035
6716,-0.216522217
6717,-0.202026367
6718,-0.18737793
6719,-0.171508789
6720,-0.150604248
6721,-0.131988525
6722,-0.116577148
6723,-0.100250244
6724,-0.087432861
6725,-0.075683594
6726,-0.068817139
6727,-0.05859375
6728,-0.05279541
6729,-0.045776367
6730,-0.038146973
6731,-0.035858154
6732,-0.030975342
6733,-0.026550293
6734,-0.021209717
6735,-0.018463135
6736,-0.01663208
6737,-0.014190674
6738,-0.011291504
6739,-0.011444092
6740,-0.009002686
6741,-0.006713867
6742,-0.003814697
6743,-0.003662109
6744,-0.004119873
6745,-0.001678467
6746,0.000915527
6747,0.003509521
6748,0.003356934
6749,0.003204346
6750,0.005493164
6751,0.008087158
6752,0.00793457
6753,0.00793457
6754,0.01083374
6755,0.010681152
6756,0.010681152
6757,0.008087158
6758,0.010681152
6759,0.00793457
6760,0.01083374
6761,0.00869751
6762,0.008239746
6763,0.010681152
6764,0.010681152
6765,0.010528564
6766,0.016021729
6767,0.013275146
6768,0.012817383
6769,0.015563965
6770,0.013885498
6771,0.015411377
6772,0.015258789
6773,0.013275146
6774,0.013580322
6775,0.023345947
6776,0.048522949
6777,0.056915283
6778,0.051727295
6779,0.06439209
6780,0.025482178
6781,-0.008850098
6782,-0.023651123
6783,-0.01159668
6784,-0.01663208
6785,-0.026092529
6786,-0.028381348
6787,-0.02822876
6788,-0.024414063
6789,-0.018615723
6790,-0.016021729
6791,-0.016326904
6792,-0.022583008
6793,-0.08392334
6794,-0.08605957
6795,0.118865967
6796,0.776824951
6797,0.986633301
6798,0.271453857
6799,-0.285644531
6800,-0.458526611
6801,-0.348968506
6802,-0.18737793
6803,-0.119934082
6804,-0.085754395
6805,-0.065307617
6806,-0.051422119
6807,-0.040893555
6808,-0.028381348
6809,-0.021057129
6810,-0.010986328
6811,-0.001678467
6812,0.01083374
6813,0.017700195
6814,0.022888184
6815,0.032501221
6816,0.044708252
6817,0.058135986
6818,0.076293945
6819,0.099945068
6820,0.127105713
6821,0.148773193
6822,0.163726807
6823,0.169372559
6824,0.16494751
6825,0.135955811
6826,0.074462891
6827,-0.007019043
6828,-0.082855225
6829,-0.142669678
6830,-0.179138184
6831,-0.196533203
6832,-0.199737549
6833,-0.192260742
6834,-0.175323486
6835,-0.15838623
6836,-0.143585205
6837,-0.128631592
6838,-0.116271973
6839,-0.09979248
6840,-0.088195801
6841,-0.079803467
6842,-0.067443848
6843,-0.058898926
6844,-0.05065918
6845,-0.040893555
6846,-0.038604736
6847,-0.035552979
6848,-0.030670166
6849,-0.026245117
6850,-0.024871826
6851,-0.018463135
6852,-0.018463135
6853,-0.023651123
6854,-0.021362305
6855,-0.018920898
6856,-0.015869141
6857,-0.014038086
6858,-0.011138916
6859,-0.011444092
6860,-0.011444092
6861,-0.003967285
6862,-0.001831055
6863,0.001068115
6864,0.003204346
6865,0.003204346
6866,0.000762939
6867,0.005645752
6868,0.00793457
6869,0.010681152
6870,0.010681152
6871,0.00793457
6872,0.008239746
6873,0.01083374
6874,0.01083374
6875,0.010223389
6876,0.005493164
6877,0.008087158
6878,0.015563965
6879,0.013122559
6880,0.012969971
6881,0.010681152
6882,0.015258789
6883,0.013275146
6884,0.010528564
6885,0.00869751
6886,0.013275146
6887,0.020446777
6888,0.036773682
6889,0.051879883
6890,0.047149658
6891,0.066680908
6892,0.036010742
6893,-0.003967285
6894,-0.017242432
6895,-0.001678467
6896,-0.004119873
6897,-0.016174316
6898,-0.016326904
6899,-0.01373291
6900,-0.012207031
6901,-0.00869751
6902,-0.006561279
6903,-0.006256104
6904,-0.015258789
6905,-0.079040527
6906,-0.052032471
6907,0.160064697
6908,0.808868408
6909,0.880737305
6910,0.291748047
6911,-0.21484375
6912,-0.433654785
6913,-0.356140137
6914,-0.198822021
6915,-0.112609863
6916,-0.082092285
6917,-0.062866211
6918,-0.048217773
6919,-0.037994385
6920,-0.030822754
6921,-0.023651123
6922,-0.014190674
6923,-0.006713867
6924,-0.000152588
6925,0.007629395
6926,0.015411377
