,Amplitude(mV),Time(s)
0,-0.011334815,0.001
1,-0.011305941,0.002
2,-0.010180076,0.003
3,-0.008864535,0.004
4,-0.009031561,0.005
5,-0.009002686,0.006
6,-0.009017124,0.007
7,-0.008878974,0.008
8,-0.009046,0.009
9,-0.011044082,0.01
10,-0.011553364,0.011
11,-0.011320381,0.012
12,-0.011458531,0.013
13,-0.013332902,0.014
14,-0.013885498,0.015
15,-0.013994768,0.016
16,-0.01362364,0.017
17,-0.013885498,0.018
18,-0.013885498,0.019
19,-0.014038086,0.02
20,-0.012745183,0.021
21,-0.011429652,0.022
22,-0.011167797,0.023
23,-0.010194508,0.024
24,-0.009031567,0.025
25,-0.009155273,0.026
26,-0.009140833,0.027
27,-0.009278979,0.028
28,-0.00798607,0.029
29,-0.007701601,0.03
30,-0.008835656,0.031
31,-0.009002686,0.032
32,-0.009140832,0.033
33,-0.008835656,0.034
34,-0.009169715,0.035
35,-0.009126389,0.036
36,-0.009126389,0.037
37,-0.008973801,0.038
38,-0.009155273,0.039
39,-0.009278976,0.04
40,-0.009140831,0.041
41,-0.009002686,0.042
42,-0.009002686,0.043
43,-0.008850098,0.044
44,-0.009017129,0.045
45,-0.008711953,0.046
46,-0.008988242,0.047
47,-0.009293417,0.048
48,-0.009140829,0.049
49,-0.009126385,0.05
50,-0.009155273,0.051
51,-0.009002686,0.052
52,-0.008893431,0.053
53,-0.009126384,0.054
54,-0.008878987,0.055
55,-0.009002686,0.056
56,-0.009140828,0.057
57,-0.009155273,0.058
58,-0.008835652,0.059
59,-0.00898824,0.06
60,-0.007905679,0.061
61,-0.006837563,0.062
62,-0.006394245,0.063
63,-0.00627055,0.064
64,-0.006699421,0.065
65,-0.006503494,0.066
66,-0.004148766,0.067
67,-0.003676556,0.068
68,-0.004119873,0.069
69,-0.004090979,0.07
70,-0.004148767,0.071
71,-0.004258014,0.072
72,-0.004105426,0.073
73,-0.004134321,0.074
74,-0.005536507,0.075
75,-0.006575727,0.076
76,-0.006437587,0.077
77,-0.006852007,0.078
78,-0.006546831,0.079
79,-0.00668497,0.08
80,-0.006823109,0.081
81,-0.007491255,0.082
82,-0.006699418,0.083
83,-0.006408691,0.084
84,-0.006837557,0.085
85,-0.006394242,0.086
86,-0.006423141,0.087
87,-0.006713867,0.088
88,-0.006590179,0.089
89,-0.006394242,0.09
90,-0.004381699,0.091
91,-0.004119873,0.092
92,-0.003981735,0.093
93,-0.004272461,0.094
94,-0.00424356,0.095
95,-0.003981736,0.096
96,-0.004119873,0.097
97,-0.004090971,0.098
98,-0.003705463,0.099
99,-0.004134324,0.1
100,-0.004105422,0.101
101,-0.004119873,0.102
102,-0.003981737,0.103
103,-0.004243557,0.104
104,-0.004214653,0.105
105,-0.004119873,0.106
106,-0.003981737,0.107
107,-0.004119873,0.108
108,-0.004119873,0.109
109,-0.004243555,0.11
110,-0.004272461,0.111
111,-0.003843603,0.112
112,-0.004258008,0.113
113,-0.004119873,0.114
114,-0.004134327,0.115
115,-0.004090966,0.116
116,-0.004119873,0.117
117,-0.004119873,0.118
118,-0.004134327,0.119
119,-0.004105419,0.12
120,-0.002107322,0.121
121,-0.001831055,0.122
122,-0.001554788,0.123
123,-0.001678467,0.124
124,-0.002971444,0.125
125,-0.003829152,0.126
126,-0.004243551,0.127
127,-0.004381683,0.128
128,-0.004119873,0.129
129,-0.004134329,0.13
130,-0.004090962,0.131
131,-0.003981741,0.132
132,-0.003037302,0.133
133,-0.001678467,0.134
134,-0.001940274,0.135
135,-0.001387747,0.136
136,-0.001649554,0.137
137,-0.001692924,0.138
138,-0.001831055,0.139
139,-0.001525879,0.14
140,-0.001678467,0.141
141,-0.001787683,0.142
142,-0.001707382,0.143
143,-0.00385807,0.144
144,-0.004119873,0.145
145,-0.004396133,0.146
146,-0.005093233,0.147
147,-0.006575738,0.148
148,-0.006590196,0.149
149,-0.008516005,0.15
150,-0.009111898,0.151
151,-0.008726427,0.152
152,-0.008740887,0.153
153,-0.009002686,0.154
154,-0.009017145,0.155
155,-0.008014861,0.156
156,-0.006423151,0.157
157,-0.006270563,0.158
158,-0.006575739,0.159
159,-0.006575739,0.16
160,-0.006699407,0.161
161,-0.007825363,0.162
162,-0.009155273,0.163
163,-0.008864558,0.164
164,-0.010404898,0.165
165,-0.011334886,0.166
166,-0.011705885,0.167
167,-0.012664795,0.168
168,-0.011582218,0.169
169,-0.011167839,0.17
170,-0.011320427,0.171
171,-0.010303668,0.172
172,-0.0089593,0.173
173,-0.006532355,0.174
174,-0.004352738,0.175
175,-0.001678467,0.176
176,0.001474528,0.177
177,0.004526286,0.178
178,0.009242049,0.179
179,0.011683456,0.18
180,0.015178516,0.181
181,0.017758048,0.182
182,0.020003477,0.183
183,0.021420158,0.184
184,0.022735596,0.185
185,0.022750059,0.186
186,0.024181206,0.187
187,0.025038878,0.188
188,0.025358518,0.189
189,0.02532959,0.19
190,0.025191466,0.191
191,0.025286196,0.192
192,0.022917113,0.193
193,0.022721131,0.194
194,0.022750061,0.195
195,0.023011841,0.196
196,0.022888184,0.197
197,0.022968445,0.198
198,0.020737488,0.199
199,0.020432312,0.2
200,0.019030089,0.201
201,0.018143493,0.202
202,0.017003047,0.203
203,0.015396911,0.204
204,0.013108092,0.205
205,0.012941038,0.206
206,0.010819274,0.207
207,0.010499631,0.208
208,0.008530455,0.209
209,0.008072691,0.21
210,0.006212702,0.211
211,0.004396114,0.212
212,0.003466119,0.213
213,0.002063892,0.214
214,0.00103918,0.215
215,-0.000224928,0.216
216,-0.001525879,0.217
217,-0.001554815,0.218
218,-0.003814697,0.219
219,-0.004177747,0.22
220,-0.006117984,0.221
221,-0.007425501,0.222
222,-0.008879036,0.223
223,-0.010877148,0.224
224,-0.012460904,0.225
225,-0.01362373,0.226
226,-0.016159847,0.227
227,-0.016326904,0.228
228,-0.016217726,0.229
229,-0.016065138,0.23
230,-0.016326904,0.231
231,-0.016465022,0.232
232,-0.016479492,0.233
233,-0.016341375,0.234
234,-0.016312434,0.235
235,-0.015171964,0.236
236,-0.013623735,0.237
237,-0.01414726,0.238
238,-0.013761853,0.239
239,-0.013871027,0.24
240,-0.013965728,0.241
241,-0.011320447,0.242
242,-0.01142962,0.243
243,-0.010456205,0.244
244,-0.008988213,0.245
245,-0.008973741,0.246
246,-0.006699395,0.247
247,-0.00667045,0.248
248,-0.006408691,0.249
249,-0.006590225,0.25
250,-0.006408691,0.251
251,-0.006713867,0.252
252,-0.006546806,0.253
253,-0.006713867,0.254
254,-0.006851982,0.255
255,-0.006423165,0.256
256,-0.006684919,0.257
257,-0.006684919,0.258
258,-0.006408691,0.259
259,-0.006561279,0.26
260,-0.006684918,0.261
261,-0.00653233,0.262
262,-0.006546805,0.263
263,-0.006699392,0.264
264,-0.006699392,0.265
265,-0.006699392,0.266
266,-0.006408691,0.267
267,-0.006437642,0.268
268,-0.006561279,0.269
269,-0.006561279,0.27
270,-0.006684915,0.271
271,-0.00525372,0.272
272,-0.003938333,0.273
273,-0.004396096,0.274
274,-0.004134349,0.275
275,-0.004119873,0.276
276,-0.004076443,0.277
277,-0.001802101,0.278
278,-0.00166399,0.279
279,-0.001416722,0.28
280,-0.001525879,0.281
281,0.000624829,0.282
282,0.001053638,0.283
283,0.000762939,0.284
284,0.000915527,0.285
285,0.001053637,0.286
286,0.000610352,0.287
287,0.00062483,0.288
288,0.001039158,0.289
289,0.000748461,0.29
290,-0.000406527,0.291
291,-0.001569316,0.292
292,-0.003705546,0.293
293,-0.007425573,0.294
294,-0.012046648,0.295
295,-0.017220159,0.296
296,-0.023548661,0.297
297,-0.032732896,0.298
298,-0.042556443,0.299
299,-0.055846073,0.3
300,-0.070581394,0.301
301,-0.088019858,0.302
302,-0.105720058,0.303
303,-0.123834579,0.304
304,-0.140771839,0.305
305,-0.156096335,0.306
306,-0.168441476,0.307
307,-0.177466422,0.308
308,-0.182233385,0.309
309,-0.182495117,0.31
310,-0.181449255,0.311
311,-0.174830048,0.312
312,-0.164795978,0.313
313,-0.150547373,0.314
314,-0.132607693,0.315
315,-0.112335747,0.316
316,-0.086766668,0.317
317,-0.057731515,0.318
318,-0.02486718,0.319
319,0.009246824,0.32
320,0.046688798,0.321
321,0.089333245,0.322
322,0.134448065,0.323
323,0.182738267,0.324
324,0.231747958,0.325
325,0.282393683,0.326
326,0.298505366,0.327
327,0.310665912,0.328
328,0.356383344,0.329
329,0.405487687,0.33
330,0.453160802,0.331
331,0.497658537,0.332
332,0.541480241,0.333
333,0.585440049,0.334
334,0.628106728,0.335
335,0.67076567,0.336
336,0.713555966,0.337
337,0.755169014,0.338
338,0.794689286,0.339
339,0.834028,0.34
340,0.872894463,0.341
341,0.908651224,0.342
342,0.939801373,0.343
343,0.96420868,0.344
344,0.978647548,0.345
345,0.978357817,0.346
346,0.963499796,0.347
347,0.935053727,0.348
348,0.896798568,0.349
349,0.84825435,0.35
350,0.793759201,0.351
351,0.732164855,0.352
352,0.66867379,0.353
353,0.603337183,0.354
354,0.538988542,0.355
355,0.475417329,0.356
356,0.415355639,0.357
357,0.356790852,0.358
358,0.301459388,0.359
359,0.247377606,0.36
360,0.195788399,0.361
361,0.146880119,0.362
362,0.100580323,0.363
363,0.056220704,0.364
364,0.015704762,0.365
365,-0.023147201,0.366
366,-0.059085504,0.367
367,-0.092415321,0.368
368,-0.122112007,0.369
369,-0.147812427,0.37
370,-0.171071439,0.371
371,-0.190864398,0.372
372,-0.207409539,0.373
373,-0.220779315,0.374
374,-0.233233561,0.375
375,-0.242025698,0.376
376,-0.249430051,0.377
377,-0.252176634,0.378
378,-0.253572092,0.379
379,-0.253710188,0.38
380,-0.251297764,0.381
381,-0.247592179,0.382
382,-0.244816613,0.383
383,-0.240529659,0.384
384,-0.23677293,0.385
385,-0.232900262,0.386
386,-0.229710408,0.387
387,-0.226854715,0.388
388,-0.223345194,0.389
389,-0.220736706,0.39
390,-0.218266313,0.391
391,-0.216950994,0.392
392,-0.214618695,0.393
393,-0.212082674,0.394
394,-0.210789503,0.395
395,-0.209641268,0.396
396,-0.208515177,0.397
397,-0.207061768,0.398
398,-0.206088263,0.399
399,-0.204467773,0.4
400,-0.203189092,0.401
401,-0.202607729,0.402
402,-0.201067355,0.403
403,-0.199861147,0.404
404,-0.197601318,0.405
405,-0.197405245,0.406
406,-0.195007324,0.407
407,-0.194702148,0.408
408,-0.19270401,0.409
409,-0.19125824,0.41
410,-0.190400696,0.411
411,-0.18878784,0.412
412,-0.187777708,0.413
413,-0.185503386,0.414
414,-0.183824919,0.415
415,-0.181521603,0.416
416,-0.180191802,0.417
417,-0.178026578,0.418
418,-0.17578125,0.419
419,-0.174030297,0.42
420,-0.172853085,0.421
421,-0.170578764,0.422
422,-0.169314568,0.423
423,-0.168079366,0.424
424,-0.165848539,0.425
425,-0.164446252,0.426
426,-0.162934871,0.427
427,-0.160551458,0.428
428,-0.159439847,0.429
429,-0.158248141,0.43
430,-0.155944824,0.431
431,-0.155777737,0.432
432,-0.153794095,0.433
433,-0.152086629,0.434
434,-0.149659722,0.435
435,-0.148577107,0.436
436,-0.146288288,0.437
437,-0.143679794,0.438
438,-0.141267387,0.439
439,-0.138949568,0.44
440,-0.136231986,0.441
441,-0.133790579,0.442
442,-0.131349173,0.443
443,-0.128922267,0.444
444,-0.126618948,0.445
445,-0.125187652,0.446
446,-0.12303692,0.447
447,-0.121474462,0.448
448,-0.12033384,0.449
449,-0.118865967,0.45
450,-0.119127638,0.451
451,-0.116729736,0.452
452,-0.11668623,0.453
453,-0.114440918,0.454
454,-0.113692481,0.455
455,-0.11226118,0.456
456,-0.110568211,0.457
457,-0.109681688,0.458
458,-0.107131202,0.459
459,-0.105547311,0.46
460,-0.104370117,0.461
461,-0.103229486,0.462
462,-0.102052292,0.463
463,-0.100788078,0.464
464,-0.0996689,0.465
465,-0.098332166,0.466
466,-0.097060402,0.467
467,-0.096086859,0.468
468,-0.094728072,0.469
469,-0.092315674,0.47
470,-0.092119572,0.471
471,-0.089845258,0.472
472,-0.089401999,0.473
473,-0.087418356,0.474
474,-0.087403851,0.475
475,-0.086430302,0.476
476,-0.084838867,0.477
477,-0.085086021,0.478
478,-0.082688131,0.479
479,-0.081285828,0.48
480,-0.080137655,0.481
481,-0.078786396,0.482
482,-0.077100404,0.483
483,-0.076221413,0.484
484,-0.075087749,0.485
485,-0.074906148,0.486
486,-0.072893491,0.487
487,-0.07275541,0.488
488,-0.071505692,0.489
489,-0.07019043,0.49
490,-0.068911697,0.491
491,-0.067690993,0.492
492,-0.065612793,0.493
493,-0.064290535,0.494
494,-0.062851703,0.495
495,-0.061849127,0.496
496,-0.060148645,0.497
497,-0.059298656,0.498
498,-0.058150495,0.499
499,-0.057692731,0.5
500,-0.055832659,0.501
501,-0.055483956,0.502
502,-0.053100586,0.503
503,-0.052933489,0.504
504,-0.051988942,0.505
505,-0.050521101,0.506
506,-0.050521102,0.507
507,-0.049380437,0.508
508,-0.048188753,0.509
509,-0.048203263,0.51
510,-0.047048086,0.511
511,-0.04563829,0.512
512,-0.04600899,0.513
513,-0.043473038,0.514
514,-0.043291428,0.515
515,-0.04119873,0.516
516,-0.039752884,0.517
517,-0.038590225,0.518
518,-0.038437637,0.519
519,-0.037325987,0.52
520,-0.035843643,0.521
521,-0.035662031,0.522
522,-0.033845488,0.523
523,-0.033678387,0.524
524,-0.031266005,0.525
525,-0.030960829,0.526
526,-0.028853624,0.527
527,-0.028243273,0.528
528,-0.028672011,0.529
529,-0.027378742,0.53
530,-0.026121556,0.531
531,-0.026201577,0.532
532,-0.025968968,0.533
533,-0.026078016,0.534
534,-0.026259631,0.535
535,-0.026063502,0.536
536,-0.026107043,0.537
537,-0.025939941,0.538
538,-0.02437052,0.539
539,-0.023665638,0.54
540,-0.023498535,0.541
541,-0.02134779,0.542
542,-0.02131876,0.543
543,-0.018935413,0.544
544,-0.01850668,0.545
545,-0.017656649,0.546
546,-0.016188832,0.547
547,-0.016450461,0.548
548,-0.014038086,0.549
549,-0.014038086,0.55
550,-0.014052602,0.551
551,-0.01271577,0.552
552,-0.011429575,0.553
553,-0.011582163,0.554
554,-0.010288877,0.555
555,-0.009017202,0.556
556,-0.00916979,0.557
557,-0.007861985,0.558
558,-0.006684833,0.559
559,-0.006452243,0.56
560,-0.006532244,0.561
561,-0.005420576,0.562
562,-0.004090838,0.563
563,-0.004119873,0.564
564,-0.002855616,0.565
565,-0.001663949,0.566
566,-0.001554916,0.567
567,-0.000247102,0.568
568,0.000791977,0.569
569,0.002027199,0.57
570,0.003247902,0.571
571,0.005369614,0.572
572,0.007062601,0.573
573,0.008087158,0.574
574,0.009198832,0.575
575,0.010710192,0.576
576,0.012802863,0.577
577,0.014096166,0.578
578,0.015273309,0.579
579,0.01794729,0.58
580,0.018310547,0.581
581,0.020475818,0.582
582,0.020337751,0.583
583,0.022583008,0.584
584,0.023178838,0.585
585,0.025024414,0.586
586,0.025496699,0.587
587,0.027327754,0.588
588,0.027800039,0.589
589,0.029783682,0.59
590,0.031186017,0.591
591,0.032697374,0.592
592,0.034681017,0.593
593,0.036097875,0.594
594,0.037551143,0.595
595,0.038662826,0.596
596,0.039549309,0.597
597,0.040508405,0.598
598,0.041838128,0.599
599,0.043225942,0.6
600,0.044403076,0.601
601,0.045543808,0.602
602,0.047026117,0.603
603,0.048275868,0.604
604,0.049591064,0.605
605,0.051422119,0.606
606,0.052868031,0.607
607,0.054350337,0.608
608,0.056377553,0.609
609,0.05891345,0.61
610,0.060054189,0.611
611,0.061507445,0.612
612,0.062786248,0.613
613,0.064115964,0.614
614,0.065351193,0.615
615,0.066651857,0.616
616,0.066375732,0.617
617,0.06750195,0.618
618,0.068940675,0.619
619,0.070110472,0.62
620,0.071287597,0.621
621,0.071607299,0.622
622,0.073576416,0.623
623,0.073852539,0.624
624,0.074993288,0.625
625,0.076446533,0.626
626,0.076613648,0.627
627,0.078582764,0.628
628,0.078597291,0.629
629,0.079738043,0.63
630,0.080900637,0.631
631,0.08116223,0.632
632,0.080777105,0.633
633,0.081038698,0.634
634,0.081329346,0.635
635,0.081053226,0.636
636,0.081038698,0.637
637,0.081038698,0.638
638,0.081053227,0.639
639,0.08090064,0.64
640,0.08127123,0.641
641,0.079178586,0.642
642,0.07887341,0.643
643,0.07747106,0.644
644,0.076417474,0.645
645,0.074143185,0.646
646,0.073699951,0.647
647,0.071411133,0.648
648,0.070284897,0.649
649,0.067690902,0.65
650,0.066361202,0.651
651,0.064472025,0.652
652,0.062030618,0.653
653,0.059327628,0.654
654,0.055774513,0.655
655,0.053042462,0.656
656,0.05072458,0.657
657,0.047229589,0.658
658,0.043443954,0.659
659,0.040791833,0.66
660,0.03778367,0.661
661,0.035313199,0.662
662,0.031803676,0.663
663,0.02893357,0.664
664,0.024479456,0.665
665,0.021870928,0.666
666,0.016988115,0.667
667,0.012272422,0.668
668,0.009387784,0.669
669,0.004643026,0.67
670,0.001053582,0.671
671,-0.002528607,0.672
672,-0.007534941,0.673
673,-0.010281523,0.674
674,-0.014764708,0.675
675,-0.018245163,0.676
676,-0.022408639,0.677
677,-0.025816422,0.678
678,-0.02941315,0.679
679,-0.033046192,0.68
680,-0.036875425,0.681
681,-0.040661053,0.682
682,-0.044076127,0.683
683,-0.047941668,0.684
684,-0.051647383,0.685
685,-0.054364895,0.686
686,-0.05666825,0.687
687,-0.059095121,0.688
688,-0.061674579,0.689
689,-0.064007006,0.69
690,-0.066586465,0.691
691,-0.067792632,0.692
692,-0.069914327,0.693
693,-0.072188609,0.694
694,-0.073758098,0.695
695,-0.074949728,0.696
696,-0.077085959,0.697
697,-0.0787935,0.698
698,-0.079970592,0.699
699,-0.08212136,0.7
700,-0.082579124,0.701
701,-0.084548229,0.702
702,-0.084715355,0.703
703,-0.086241234,0.704
704,-0.087265735,0.705
705,-0.087679884,0.706
706,-0.087403784,0.707
707,-0.087418323,0.708
708,-0.087142224,0.709
709,-0.087156763,0.71
710,-0.087418322,0.711
711,-0.087708959,0.712
712,-0.087294813,0.713
713,-0.086139461,0.714
714,-0.084809788,0.715
715,-0.084700819,0.716
716,-0.084809787,0.717
717,-0.084715359,0.718
718,-0.084824327,0.719
719,-0.084824327,0.72
720,-0.082811603,0.721
721,-0.082259414,0.722
722,-0.08199786,0.723
723,-0.082259414,0.724
724,-0.081118594,0.725
725,-0.079818008,0.726
726,-0.079818008,0.727
727,-0.078982362,0.728
728,-0.077514648,0.729
729,-0.077638153,0.73
730,-0.075363876,0.731
731,-0.074811692,0.732
732,-0.074208508,0.733
733,-0.072355745,0.734
734,-0.071338421,0.735
735,-0.070343018,0.736
736,-0.06915856,0.737
737,-0.067749023,0.738
738,-0.06773448,0.739
739,-0.065489291,0.74
740,-0.065155029,0.741
741,-0.063033342,0.742
742,-0.06282258,0.743
743,-0.060395717,0.744
744,-0.060577393,0.745
745,-0.059131381,0.746
746,-0.058121442,0.747
747,-0.057663678,0.748
748,-0.055941578,0.749
749,-0.05578899,0.75
750,-0.052962543,0.751
751,-0.053238629,0.752
752,-0.051850793,0.753
753,-0.050797222,0.754
754,-0.050739041,0.755
755,-0.048370361,0.756
756,-0.048326725,0.757
757,-0.047200426,0.758
758,-0.045500283,0.759
759,-0.044620976,0.76
760,-0.043349507,0.761
761,-0.043305868,0.762
762,-0.041169638,0.763
763,-0.040879008,0.764
764,-0.040632019,0.765
765,-0.039709064,0.766
766,-0.038146973,0.767
767,-0.038103331,0.768
768,-0.038452148,0.769
769,-0.038590189,0.77
770,-0.038176068,0.771
771,-0.038176068,0.772
772,-0.038437601,0.773
773,-0.038299561,0.774
774,-0.038466697,0.775
775,-0.037216897,0.776
776,-0.035872703,0.777
777,-0.035981645,0.778
778,-0.035843606,0.779
779,-0.034993373,0.78
780,-0.03326416,0.781
781,-0.033402199,0.782
782,-0.033235061,0.783
783,-0.030989891,0.784
784,-0.03111338,0.785
785,-0.030960792,0.786
786,-0.029878127,0.787
787,-0.028824561,0.788
788,-0.028533936,0.789
789,-0.028395898,0.79
790,-0.027545656,0.791
791,-0.025925391,0.792
792,-0.025954492,0.793
793,-0.025983594,0.794
794,-0.025939941,0.795
795,-0.024123438,0.796
796,-0.023818262,0.797
797,-0.023636572,0.798
798,-0.023665675,0.799
799,-0.023651123,0.8
800,-0.023636571,0.801
801,-0.023665675,0.802
802,-0.022510247,0.803
803,-0.021238821,0.804
804,-0.021376857,0.805
805,-0.021180612,0.806
806,-0.019487592,0.807
807,-0.018935451,0.808
808,-0.019073486,0.809
809,-0.017641982,0.81
810,-0.016602973,0.811
811,-0.016450385,0.812
812,-0.016326904,0.813
813,-0.016036282,0.814
814,-0.015062539,0.815
815,-0.013885498,0.816
816,-0.013623985,0.817
817,-0.013979869,0.818
818,-0.013885498,0.819
819,-0.013900053,0.82
820,-0.013900053,0.821
821,-0.01376202,0.822
822,-0.013885498,0.823
823,-0.014161563,0.824
824,-0.013762021,0.825
825,-0.013856387,0.826
826,-0.014176118,0.827
827,-0.014008974,0.828
828,-0.014176118,0.829
829,-0.013762022,0.83
830,-0.013747466,0.831
831,-0.013870942,0.832
832,-0.014023529,0.833
833,-0.012577455,0.834
834,-0.011306061,0.835
835,-0.011458649,0.836
836,-0.011320618,0.837
837,-0.012679352,0.838
838,-0.01249765,0.839
839,-0.01159668,0.84
840,-0.01173471,0.841
841,-0.011306062,0.842
842,-0.011153474,0.843
843,-0.011553005,0.844
844,-0.011182591,0.845
845,-0.011429533,0.846
846,-0.011567563,0.847
847,-0.011400416,0.848
848,-0.012570442,0.849
849,-0.014023527,0.85
850,-0.014023527,0.851
851,-0.013762029,0.852
852,-0.014161555,0.853
853,-0.013776589,0.854
854,-0.013870938,0.855
855,-0.013609442,0.856
856,-0.01376203,0.857
857,-0.01373291,0.858
858,-0.013885498,0.859
859,-0.013747471,0.86
860,-0.013812695,0.861
861,-0.011582119,0.862
862,-0.01101545,0.863
863,-0.011444092,0.864
864,-0.011458653,0.865
865,-0.011414969,0.866
866,-0.011444092,0.867
867,-0.011320627,0.868
868,-0.011291504,0.869
869,-0.011444092,0.87
870,-0.009416763,0.871
871,-0.008879222,0.872
872,-0.008988123,0.873
873,-0.008988123,0.874
874,-0.00886466,0.875
875,-0.009293299,0.876
876,-0.009002686,0.877
877,-0.010267078,0.878
878,-0.01132063,0.879
879,-0.011291504,0.88
880,-0.011720141,0.881
881,-0.011320631,0.882
882,-0.01059377,0.883
883,-0.00914071,0.884
884,-0.008988122,0.885
885,-0.009126145,0.886
886,-0.008712074,0.887
887,-0.009155273,0.888
888,-0.008850098,0.889
889,-0.010281647,0.89
890,-0.011720138,0.891
891,-0.011473222,0.892
892,-0.011582115,0.893
893,-0.011168047,0.894
894,-0.011306069,0.895
895,-0.011567549,0.896
896,-0.011291504,0.897
897,-0.01170557,0.898
898,-0.01159668,0.899
899,-0.011582114,0.9
900,-0.011567547,0.901
901,-0.011458658,0.902
902,-0.01130607,0.903
903,-0.011429525,0.904
904,-0.011473225,0.905
905,-0.010303142,0.906
906,-0.008988118,0.907
907,-0.00926416,0.908
908,-0.009155273,0.909
909,-0.008879233,0.91
910,-0.009002686,0.911
911,-0.009293293,0.912
912,-0.009140705,0.913
913,-0.009155273,0.914
914,-0.011291504,0.915
915,-0.011400387,0.916
916,-0.011705562,0.917
917,-0.01159668,0.918
918,-0.011473229,0.919
919,-0.011444092,0.92
920,-0.01159668,0.921
921,-0.01159668,0.922
922,-0.011444092,0.923
923,-0.011458661,0.924
924,-0.011291504,0.925
925,-0.011429522,0.926
926,-0.010484854,0.927
927,-0.008864668,0.928
928,-0.009278721,0.929
929,-0.008864668,0.93
930,-0.009017256,0.931
931,-0.008850098,0.932
932,-0.00773827,0.933
933,-0.006423262,0.934
934,-0.006546708,0.935
935,-0.006423263,0.936
936,-0.00614723,0.937
937,-0.004243318,0.938
938,-0.004011,0.939
939,-0.004272461,0.94
940,-0.004090729,0.941
941,-0.003967285,0.942
942,-0.004076156,0.943
943,-0.004257888,0.944
944,-0.003981858,0.945
945,-0.00382927,0.946
946,-0.004228742,0.947
947,-0.004076154,0.948
948,-0.001816482,0.949
949,-0.001816481,0.95
950,-0.001663893,0.951
951,-0.001387865,0.952
952,-0.001649319,0.953
953,-0.001678467,0.954
954,-0.001417013,0.955
955,-0.001831055,0.956
956,-0.001540453,0.957
957,-0.002107082,0.958
958,-0.001969068,0.959
959,-0.001525879,0.96
960,-0.001663892,0.961
961,-0.001525879,0.962
962,-0.001525879,0.963
963,-0.001678467,0.964
964,-0.001402442,0.965
965,-0.001373291,0.966
966,0.000748364,0.967
967,-0.000348903,0.968
968,-0.001249855,0.969
969,-0.001649314,0.97
970,-0.001678467,0.971
971,-0.001831055,0.972
972,-0.001402444,0.973
973,-0.001816478,0.974
974,-0.001816478,0.975
975,-0.001678467,0.976
976,-0.00166389,0.977
977,-0.001525879,0.978
978,-0.001402446,0.979
979,-0.001678467,0.98
980,-0.001801899,0.981
981,-0.001540457,0.982
982,-0.001649311,0.983
983,-0.001845633,0.984
984,-0.001540457,0.985
985,-0.000690047,0.986
986,0.000610352,0.987
987,0.000900949,0.988
988,0.00062493,0.989
989,0.000777518,0.99
990,0.000777519,0.991
991,0.000624931,0.992
992,0.000777519,0.993
993,0.000595772,0.994
994,0.000777519,0.995
995,0.000900947,0.996
996,0.000748359,0.997
997,0.000930108,0.998
998,0.0007921,0.999
999,0.000900947,1.0
1000,0.000915527,1.001
1001,-0.00037808,1.002
1002,-0.001663886,1.003
1003,-0.001663886,1.004
1004,-0.00154046,1.005
1005,-0.001816473,1.006
1006,-0.001816473,1.007
1007,-0.000813456,1.008
1008,0.000915527,1.009
1009,0.000900945,1.01
1010,0.000748357,1.011
1011,0.000762939,1.012
1012,0.000886363,1.013
1013,0.000762939,1.014
1014,0.001009785,1.015
1015,0.000900945,1.016
1016,0.000915527,1.017
1017,0.000748356,1.018
1018,0.000900944,1.019
1019,0.000624935,1.02
1020,0.000900944,1.021
1021,0.000610352,1.022
1022,0.000748356,1.023
1023,0.000900943,1.024
1024,0.000733771,1.025
1025,0.000624936,1.026
1026,0.000915527,1.027
1027,0.000762939,1.028
1028,0.000777524,1.029
1029,0.000777524,1.03
1030,0.000748355,1.031
1031,0.000900942,1.032
1032,0.001765978,1.033
1033,0.003204346,1.034
1034,0.003051758,1.035
1035,0.003175174,1.036
1036,0.003204346,1.037
1037,0.002913756,1.038
1038,0.003248104,1.039
1039,0.005355162,1.04
1040,0.005631166,1.041
1041,0.005645752,1.042
1042,0.005827513,1.043
1043,0.007811156,1.044
1044,0.008130919,1.045
1045,0.008181398,1.046
1046,0.006059754,1.047
1047,0.00579834,1.048
1048,0.005493164,1.049
1049,0.005601989,1.05
1050,0.003618346,1.051
1051,0.003356934,1.052
1052,0.00317517,1.053
1053,0.001053527,1.054
1054,0.00102435,1.055
1055,0.000762939,1.056
1056,0.001765999,1.057
1057,0.002928348,1.058
1058,0.003327756,1.059
1059,0.003327755,1.06
1060,0.003218935,1.061
1061,0.003204346,1.062
1062,0.002790351,1.063
1063,0.003080937,1.064
1064,0.003233525,1.065
1065,0.00295753,1.066
1066,0.003189756,1.067
1067,0.003327753,1.068
1068,0.003204346,1.069
1069,0.003175165,1.07
1070,0.003175164,1.071
1071,0.003080939,1.072
1072,0.00348034,1.073
1073,0.00308094,1.074
1074,0.003204346,1.075
1075,0.002928353,1.076
1076,0.003051758,1.077
1077,0.003204346,1.078
1078,0.003189754,1.079
1079,0.00332775,1.08
1080,0.003218938,1.081
1081,0.005493164,1.082
1082,0.005674937,1.083
1083,0.005631159,1.084
1084,0.004504673,1.085
1085,0.003342341,1.086
1086,0.003233532,1.087
1087,0.003051758,1.088
1088,0.003313154,1.089
1089,0.00334234,1.09
1090,0.003175159,1.091
1091,0.003066351,1.092
1092,0.00334234,1.093
1093,0.003066352,1.094
1094,0.003066352,1.095
1095,0.002092448,1.096
1096,0.000610352,1.097
1097,0.000915527,1.098
1098,0.000762939,1.099
1099,0.000639541,1.1
1100,0.000624947,1.101
1101,0.000762939,1.102
1102,0.000733749,1.103
1103,0.000886337,1.104
1104,0.00105352,1.105
1105,0.000915527,1.106
1106,0.000792131,1.107
1107,0.000748343,1.108
1108,0.001053519,1.109
1109,0.00047236,1.11
1110,0.000915527,1.111
1111,0.000762939,1.112
1112,0.000624948,1.113
1113,0.000624948,1.114
1114,0.000639546,1.115
1115,0.000930124,1.116
1116,0.00090093,1.117
1117,0.00090093,1.118
1118,0.000654144,1.119
1119,0.000624949,1.12
1120,0.001889446,1.121
1121,0.00303716,1.122
1122,0.001329497,1.123
1123,0.000762939,1.124
1124,0.000900929,1.125
1125,0.000871732,1.126
1126,0.00062495,1.127
1127,0.000516159,1.128
1128,0.002804978,1.129
1129,0.003204346,1.13
1130,0.003218945,1.131
1131,0.00289917,1.132
1132,0.003218945,1.133
1133,0.003327734,1.134
1134,0.003066358,1.135
1135,0.003066358,1.136
1136,0.003342333,1.137
1137,0.003342333,1.138
1138,0.002928371,1.139
1139,0.003080959,1.14
1140,0.003509521,1.141
1141,0.003465719,1.142
1142,0.003327732,1.143
1143,0.003218947,1.144
1144,0.003204346,1.145
1145,0.004483455,1.146
1146,0.005645752,1.147
1147,0.005645752,1.148
1148,0.005522368,1.149
1149,0.005355178,1.15
1150,0.00579834,1.151
1151,0.005674957,1.152
1152,0.005645752,1.153
1153,0.005783737,1.154
1154,0.005631149,1.155
1155,0.007643997,1.156
1156,0.008101761,1.157
1157,0.008225143,1.158
1158,0.00793457,1.159
1159,0.006793438,1.16
1160,0.005783736,1.161
1161,0.005522372,1.162
1162,0.005812944,1.163
1163,0.005522372,1.164
1164,0.005631148,1.165
1165,0.005921719,1.166
1166,0.005631148,1.167
1167,0.005631147,1.168
1168,0.005783735,1.169
1169,0.005660357,1.17
1170,0.005660357,1.171
1171,0.005631147,1.172
1172,0.005660357,1.173
1173,0.005493164,1.174
1174,0.005493164,1.175
1175,0.00579834,1.176
1176,0.005769128,1.177
1177,0.003480309,1.178
1178,0.003218952,1.179
1179,0.003037152,1.18
1180,0.00337154,1.181
1181,0.00332772,1.182
1182,0.003051758,1.183
1183,0.003022544,1.184
1184,0.001344077,1.185
1185,0.000639566,1.186
1186,0.000915527,1.187
1187,0.000886312,1.188
1188,0.000871705,1.189
1189,0.000624959,1.19
1190,-0.000363607,1.191
1191,-0.001540487,1.192
1192,-0.001387899,1.193
1193,-0.001402508,1.194
1194,-0.003967285,1.195
1195,-0.004134482,1.196
1196,-0.004119873,1.197
1197,-0.004105264,1.198
1198,-0.003967285,1.199
1199,-0.003981894,1.2
1200,-0.002869951,1.201
1201,-0.001939814,1.202
1202,-0.001649248,1.203
1203,0.000486983,1.204
1204,0.000639571,1.205
1205,0.000900917,1.206
1206,0.001860275,1.207
1207,0.003218956,1.208
1208,0.00345108,1.209
1209,0.001191482,1.21
1210,0.000624962,1.211
1211,-0.000486985,1.212
1212,-0.001649245,1.213
1213,-0.002027476,1.214
1214,-0.003952674,1.215
1215,-0.003981897,1.216
1216,-0.004119873,1.217
1217,-0.002978699,1.218
1218,-0.001693079,1.219
1219,-0.000246728,1.22
1220,0.00093014,1.221
1221,0.002957619,1.222
1222,0.005231826,1.223
1223,0.007186243,1.224
1224,0.009257563,1.225
1225,0.012861222,1.226
1226,0.015026679,1.227
1227,0.017453472,1.228
1228,0.019894879,1.229
1229,0.021435372,1.23
1230,0.022917411,1.231
1231,0.024901054,1.232
1232,0.02532959,1.233
1233,0.025191616,1.234
1234,0.02532959,1.235
1235,0.025177002,1.236
1236,0.025344204,1.237
1237,0.024886441,1.238
1238,0.025438333,1.239
1239,0.025191617,1.24
1240,0.025314975,1.241
1241,0.025177002,1.242
1242,0.025191617,1.243
1243,0.023897837,1.244
1244,0.022902799,1.245
1245,0.022844336,1.246
1246,0.020708105,1.247
1247,0.020279573,1.248
1248,0.018557258,1.249
1249,0.017961522,1.25
1250,0.015977879,1.251
1251,0.014132207,1.252
1252,0.012940737,1.253
1253,0.010957094,1.254
1254,0.009126039,1.255
1255,0.008254363,1.256
1256,0.007098544,1.257
1257,0.00579834,1.258
1258,0.004337343,1.259
1259,0.002928405,1.26
1260,0.002928406,1.261
1261,0.001939788,1.262
1262,0.000900909,1.263
1263,0.000639588,1.264
1264,0.000792176,1.265
1265,-0.000654208,1.266
1266,-0.001555116,1.267
1267,-0.001417148,1.268
1268,-0.001860293,1.269
1269,-0.003829316,1.27
1270,-0.004257842,1.271
1271,-0.003996524,1.272
1272,-0.006423311,1.273
1273,-0.006575899,1.274
1274,-0.007840462,1.275
1275,-0.009307861,1.276
1276,-0.009155273,1.277
1277,-0.009140653,1.278
1278,-0.008893959,1.279
1279,-0.008864718,1.28
1280,-0.009002686,1.281
1281,-0.008864719,1.282
1282,-0.009140652,1.283
1283,-0.009126031,1.284
1284,-0.009249376,1.285
1285,-0.008864719,1.286
1286,-0.008973442,1.287
1287,-0.007999427,1.288
1288,-0.006699245,1.289
1289,-0.006379447,1.29
1290,-0.004134495,1.291
1291,-0.00399653,1.292
1292,-0.003981908,1.293
1293,-0.003952662,1.294
1294,-0.002230327,1.295
1295,-0.001649221,1.296
1296,-0.001678467,1.297
1297,-0.001816431,1.298
1298,-0.001417161,1.299
1299,-0.003829321,1.3
1300,-0.004257837,1.301
1301,-0.004272461,1.302
1302,-0.004090625,1.303
1303,-0.004119873,1.304
1304,-0.004119873,1.305
1305,-0.004243212,1.306
1306,-0.004119873,1.307
1307,-0.004119873,1.308
1308,-0.004257836,1.309
1309,-0.004366549,1.31
1310,-0.003843947,1.311
1311,-0.00184568,1.312
1312,-0.001540504,1.313
1313,-0.001540504,1.314
1314,-0.001816429,1.315
1315,-0.001693093,1.316
1316,-0.001801803,1.317
1317,-0.001555131,1.318
1318,-0.001540505,1.319
1319,-0.001649214,1.32
1320,-0.001511252,1.321
1321,-0.00166384,1.322
1322,-0.001249957,1.323
1323,-0.001693094,1.324
1324,-0.001525879,1.325
1325,-0.0018018,1.326
1326,-0.0018018,1.327
1327,-0.001540506,1.328
1328,-0.001693094,1.329
1329,-0.001801799,1.33
1330,-0.001678467,1.331
1331,-0.001954386,1.332
1332,-0.001540507,1.333
1333,-0.001816426,1.334
1334,-0.001525879,1.335
1335,-0.001910499,1.336
1336,-0.00251455,1.337
1337,-0.004134502,1.338
1338,-0.00631462,1.339
1339,-0.010114689,1.34
1340,-0.012599984,1.341
1341,-0.018333514,1.342
1342,-0.024393142,1.343
1343,-0.032720668,1.344
1344,-0.042362968,1.345
1345,-0.053437079,1.346
1346,-0.067642386,1.347
1347,-0.083860597,1.348
1348,-0.100950445,1.349
1349,-0.117887705,1.35
1350,-0.134854226,1.351
1351,-0.150984654,1.352
1352,-0.164215911,1.353
1353,-0.176916247,1.354
1354,-0.183651021,1.355
1355,-0.188686422,1.356
1356,-0.189819336,1.357
1357,-0.186788479,1.358
1358,-0.180749758,1.359
1359,-0.171245411,1.36
1360,-0.158252438,1.361
1361,-0.140050577,1.362
1362,-0.116907373,1.363
1363,-0.089353751,1.364
1364,-0.059024279,1.365
1365,-0.024786052,1.366
1366,0.012503935,1.367
1367,0.055040443,1.368
1368,0.102125324,1.369
1369,0.15212401,1.37
1370,0.205711639,1.371
1371,0.257133771,1.372
1372,0.309703435,1.373
1373,0.361386839,1.374
1374,0.410229609,1.375
1375,0.459043111,1.376
1376,0.507718659,1.377
1377,0.55480979,1.378
1378,0.601073201,1.379
1379,0.646485863,1.38
1380,0.692385558,1.381
1381,0.734514461,1.382
1382,0.778154608,1.383
1383,0.820987908,1.384
1384,0.862767728,1.385
1385,0.901604471,1.386
1386,0.934496511,1.387
1387,0.960428049,1.388
1388,0.975074305,1.389
1389,0.977179075,1.39
1390,0.966692226,1.391
1391,0.942370005,1.392
1392,0.904220826,1.393
1393,0.855842035,1.394
1394,0.800001071,1.395
1395,0.739459155,1.396
1396,0.675888539,1.397
1397,0.612687863,1.398
1398,0.551224204,1.399
1399,0.491497564,1.4
1400,0.434517508,1.401
1401,0.378611775,1.402
1402,0.323644639,1.403
1403,0.271641434,1.404
1404,0.221483922,1.405
1405,0.174058354,1.406
1406,0.128261138,1.407
1407,0.085383931,1.408
1408,0.044927295,1.409
1409,0.008444142,1.41
1410,-0.027464133,1.411
1411,-0.05864218,1.412
1412,-0.086413183,1.413
1413,-0.113362687,1.414
1414,-0.136010448,1.415
1415,-0.156827153,1.416
1416,-0.17308086,1.417
1417,-0.187409485,1.418
1418,-0.198889043,1.419
1419,-0.209191818,1.42
1420,-0.213972145,1.421
1421,-0.216718728,1.422
1422,-0.218781753,1.423
1423,-0.216994622,1.424
1424,-0.215671429,1.425
1425,-0.213244663,1.426
1426,-0.210955844,1.427
1427,-0.208485153,1.428
1428,-0.205920442,1.429
1429,-0.203769569,1.43
1430,-0.202287616,1.431
1431,-0.200042725,1.432
1432,-0.198472918,1.433
1433,-0.197143555,1.434
1434,-0.1972815,1.435
1435,-0.195297857,1.436
1436,-0.195130626,1.437
1437,-0.194992681,1.438
1438,-0.193865992,1.439
1439,-0.192536631,1.44
1440,-0.192551274,1.441
1441,-0.191424583,1.442
1442,-0.189971924,1.443
1443,-0.18995728,1.444
1444,-0.189942635,1.445
1445,-0.18779176,1.446
1446,-0.187116688,1.447
1447,-0.187407219,1.448
1448,-0.18626588,1.449
1449,-0.185227054,1.45
1450,-0.185212409,1.451
1451,-0.184115003,1.452
1452,-0.182647705,1.453
1453,-0.181673595,1.454
1454,-0.180068357,1.455
1455,-0.1790796,1.456
1456,-0.178011484,1.457
1457,-0.175708019,1.458
1458,-0.173157963,1.459
1459,-0.170825205,1.46
1460,-0.168304443,1.461
1461,-0.166872565,1.462
1462,-0.165223392,1.463
1463,-0.16328369,1.464
1464,-0.162934573,1.465
1465,-0.160812989,1.466
1466,-0.160645754,1.467
1467,-0.158509523,1.468
1468,-0.156954348,1.469
1469,-0.155625001,1.47
1470,-0.153518066,1.471
1471,-0.152071534,1.472
1472,-0.150880127,1.473
1473,-0.148758545,1.474
1474,-0.148286132,1.475
1475,-0.146317138,1.476
1476,-0.145830077,1.477
1477,-0.143723144,1.478
1478,-0.143447266,1.479
1479,-0.141281737,1.48
1480,-0.139849848,1.481
1481,-0.138717042,1.482
1482,-0.137393791,1.483
1483,-0.136108398,1.484
1484,-0.135090321,1.485
1485,-0.133558355,1.486
1486,-0.132830801,1.487
1487,-0.131087649,1.488
1488,-0.130251456,1.489
1489,-0.128813481,1.49
1490,-0.12764281,1.491
1491,-0.126633298,1.492
1492,-0.125201402,1.493
1493,-0.124039304,1.494
1494,-0.121612549,1.495
1495,-0.120485827,1.496
1496,-0.119294427,1.497
1497,-0.116882324,1.498
1498,-0.115341793,1.499
1499,-0.114273678,1.5
1500,-0.112275383,1.501
1501,-0.111403813,1.502
1502,-0.109514147,1.503
1503,-0.107958963,1.504
1504,-0.106826176,1.505
1505,-0.10565549,1.506
1506,-0.104188223,1.507
1507,-0.102219233,1.508
1508,-0.102008031,1.509
1509,-0.099915761,1.51
1510,-0.098375228,1.511
1511,-0.097277804,1.512
1512,-0.094727772,1.513
1513,-0.092207049,1.514
1514,-0.090789795,1.515
1515,-0.089707025,1.516
1516,-0.087585449,1.517
1517,-0.087265619,1.518
1518,-0.085267321,1.519
1519,-0.083544889,1.52
1520,-0.082629361,1.521
1521,-0.081256069,1.522
1522,-0.080093987,1.523
1523,-0.079941399,1.524
1524,-0.078800005,1.525
1525,-0.077637924,1.526
1526,-0.077347404,1.527
1527,-0.075349105,1.528
1528,-0.074920654,1.529
1529,-0.073946501,1.53
1530,-0.072631836,1.531
1531,-0.072587865,1.532
1532,-0.070343018,1.533
1533,-0.070175773,1.534
1534,-0.068024885,1.535
1535,-0.067458505,1.536
1536,-0.067705051,1.537
1537,-0.065612793,1.538
1538,-0.065445547,1.539
1539,-0.064304142,1.54
1540,-0.062866211,1.541
1541,-0.061710146,1.542
1542,-0.060410146,1.543
1543,-0.059283397,1.544
1544,-0.058135986,1.545
1545,-0.057678223,1.546
1546,-0.055970438,1.547
1547,-0.055404063,1.548
1548,-0.055128206,1.549
1549,-0.055280795,1.55
1550,-0.055498014,1.551
1551,-0.053514371,1.552
1552,-0.052947998,1.553
1553,-0.053085926,1.554
1554,-0.052933338,1.555
1555,-0.050949695,1.556
1556,-0.050477271,1.557
1557,-0.04832638,1.558
1558,-0.047636743,1.559
1559,-0.046234131,1.56
1560,-0.045747045,1.561
1561,-0.043472888,1.562
1562,-0.043443565,1.563
1563,-0.041002158,1.564
1564,-0.040435791,1.565
1565,-0.038328884,1.566
1566,-0.038161635,1.567
1567,-0.037325385,1.568
1568,-0.036148668,1.569
1569,-0.036010742,1.57
1570,-0.035814167,1.571
1571,-0.033707261,1.572
1572,-0.033431411,1.573
1573,-0.033278823,1.574
1574,-0.031265855,1.575
1575,-0.03108394,1.576
1576,-0.029863237,1.577
1577,-0.028396011,1.578
1578,-0.028504608,1.579
1579,-0.026383041,1.58
1580,-0.024842498,1.581
1581,-0.023789047,1.582
1582,-0.022662275,1.583
1583,-0.021224381,1.584
1584,-0.021456235,1.585
1585,-0.019058822,1.586
1586,-0.018630387,1.587
1587,-0.019029492,1.588
1588,-0.017503612,1.589
1589,-0.01660275,1.59
1590,-0.016755337,1.591
1591,-0.015751817,1.592
1592,-0.013929495,1.593
1593,-0.012773386,1.594
1594,-0.01141476,1.595
1595,-0.011109584,1.596
1596,-0.009416451,1.597
1597,-0.009263862,1.598
1598,-0.007875905,1.599
1599,-0.006575946,1.6
1600,-0.006793121,1.601
1601,-0.004257794,1.602
1602,-0.004075872,1.603
1603,-0.001845722,1.604
1604,-0.001663799,1.605
1605,-0.000384426,1.606
1606,0.000610352,1.607
1607,0.000944863,1.608
1608,0.003051758,1.609
1609,0.003233682,1.61
1610,0.005340576,1.611
1611,0.005950928,1.612
1612,0.00753548,1.613
1613,0.008101827,1.614
1614,0.010223389,1.615
1615,0.010419983,1.616
1616,0.012679464,1.617
1617,0.013013978,1.618
1618,0.014096763,1.619
1619,0.015258789,1.62
1620,0.015701883,1.621
1621,0.017823444,1.622
1622,0.018034711,1.623
1623,0.020308859,1.624
1624,0.020490788,1.625
1625,0.022612348,1.626
1626,0.02320803,1.627
1627,0.024901167,1.628
1628,0.026180554,1.629
1629,0.028636632,1.63
1630,0.02995124,1.631
1631,0.031978896,1.632
1632,0.034790039,1.633
1633,0.036084099,1.634
1634,0.038648751,1.635
1635,0.039810768,1.636
1636,0.042084914,1.637
1637,0.043088473,1.638
1638,0.044585008,1.639
1639,0.046815138,1.64
1640,0.048109203,1.641
1641,0.049467822,1.642
1642,0.051618725,1.643
1643,0.054016113,1.644
1644,0.055433423,1.645
1645,0.056821388,1.646
1646,0.058790358,1.647
1647,0.061369679,1.648
1648,0.062649077,1.649
1649,0.064116262,1.65
1650,0.066129252,1.651
1651,0.068664551,1.652
1652,0.069943951,1.653
1653,0.071455156,1.654
1654,0.073837865,1.655
1655,0.074841439,1.656
1656,0.077297521,1.657
1657,0.078597439,1.658
1658,0.078444851,1.659
1659,0.078764702,1.66
1660,0.07862679,1.661
1661,0.083409884,1.662
1662,0.088545003,1.663
1663,0.090390734,1.664
1664,0.090804471,1.665
1665,0.092207114,1.666
1666,0.093521701,1.667
1667,0.093536377,1.668
1668,0.094358022,1.669
1669,0.095564049,1.67
1670,0.096101018,1.671
1671,0.096966695,1.672
1672,0.098419189,1.673
1673,0.098266602,1.674
1674,0.099516659,1.675
1675,0.100831241,1.676
1676,0.100722685,1.677
1677,0.100998506,1.678
1678,0.10069333,1.679
1679,0.100998506,1.68
1680,0.103302002,1.681
1681,0.103026183,1.682
1682,0.103302002,1.683
1683,0.103272645,1.684
1684,0.103287323,1.685
1685,0.102298401,1.686
1686,0.100860596,1.687
1687,0.100599458,1.688
1688,0.099566496,1.689
1689,0.098419189,1.69
1690,0.09700186,1.691
1691,0.095795836,1.692
1692,0.093659605,1.693
1693,0.091937098,1.694
1694,0.089554412,1.695
1695,0.08737414,1.696
1696,0.084750784,1.697
1697,0.081285304,1.698
1698,0.07774642,1.699
1699,0.074817888,1.7
1700,0.071504996,1.701
1701,0.067951431,1.702
1702,0.064210139,1.703
1703,0.060612528,1.704
1704,0.055759078,1.705
1705,0.052736683,1.706
1706,0.0485434,1.707
1707,0.04352268,1.708
1708,0.039904616,1.709
1709,0.036351047,1.71
1710,0.031881949,1.711
1711,0.026738008,1.712
1712,0.021869877,1.713
1713,0.01697238,1.714
1714,0.012089567,1.715
1715,0.006778356,1.716
1716,0.002382673,1.717
1717,-0.000255372,1.718
1718,-0.005246723,1.719
1719,-0.009868412,1.72
1720,-0.014628005,1.721
1721,-0.019648723,1.722
1722,-0.024959932,1.723
1723,-0.029384981,1.724
1724,-0.03466682,1.725
1725,-0.037196335,1.726
1726,-0.041744603,1.727
1727,-0.044796362,1.728
1728,-0.048930921,1.729
1729,-0.051953309,1.73
1730,-0.056407729,1.731
1731,-0.06115264,1.732
1732,-0.063717264,1.733
1733,-0.068629449,1.734
1734,-0.073374361,1.735
1735,-0.076120944,1.736
1736,-0.079847526,1.737
1737,-0.081998443,1.738
1738,-0.084483909,1.739
1739,-0.087171746,1.74
1740,-0.089431191,1.741
1741,-0.090986444,1.742
1742,-0.092039872,1.743
1743,-0.09419079,1.744
1744,-0.095731357,1.745
1745,-0.097365762,1.746
1746,-0.099334717,1.747
1747,-0.099349405,1.748
1748,-0.099472617,1.749
1749,-0.10062886,1.75
1750,-0.102081299,1.751
1751,-0.101652912,1.752
1752,-0.101776123,1.753
1753,-0.102233887,1.754
1754,-0.102051921,1.755
1755,-0.100024211,1.756
1756,-0.099487305,1.757
1757,-0.099349406,1.758
1758,-0.099487305,1.759
1759,-0.099595824,1.76
1760,-0.099501994,1.761
1761,-0.099211509,1.762
1762,-0.098483638,1.763
1763,-0.097045898,1.764
1764,-0.096784793,1.765
1765,-0.097183796,1.766
1766,-0.097183796,1.767
1767,-0.097045898,1.768
1768,-0.097031208,1.769
1769,-0.094786462,1.77
1770,-0.094466595,1.771
1771,-0.094633875,1.772
1772,-0.094604492,1.773
1773,-0.092394804,1.774
1774,-0.092163086,1.775
1775,-0.091144716,1.776
1776,-0.08972168,1.777
1777,-0.089539708,1.778
1778,-0.087541372,1.779
1779,-0.087098301,1.78
1780,-0.085237861,1.781
1781,-0.084917992,1.782
1782,-0.082673251,1.783
1783,-0.082397461,1.784
1784,-0.081393775,1.785
1785,-0.079956055,1.786
1786,-0.07981816,1.787
1787,-0.077514648,1.788
1788,-0.077637849,1.789
1789,-0.07611197,1.79
1790,-0.075058548,1.791
1791,-0.075043854,1.792
1792,-0.072922317,1.793
1793,-0.072464554,1.794
1794,-0.070313628,1.795
1795,-0.069048841,1.796
1796,-0.06761113,1.797
1797,-0.068118617,1.798
1798,-0.065322312,1.799
1799,-0.065307617,1.8
1800,-0.064303917,1.801
1801,-0.063004103,1.802
1802,-0.06283682,1.803
1803,-0.060562697,1.804
1804,-0.060410109,1.805
1805,-0.060410109,1.806
1806,-0.058288574,1.807
1807,-0.057998095,1.808
1808,-0.058106593,1.809
1809,-0.058135986,1.81
1810,-0.05769292,1.811
1811,-0.057983398,1.812
1812,-0.057707617,1.813
1813,-0.057801416,1.814
1814,-0.057954004,1.815
1815,-0.055970361,1.816
1816,-0.055512597,1.817
1817,-0.054429783,1.818
1818,-0.053100586,1.819
1819,-0.052962696,1.82
1820,-0.050811768,1.821
1821,-0.049394381,1.822
1822,-0.048188376,1.823
1823,-0.046081543,1.824
1824,-0.045638478,1.825
1825,-0.044772646,1.826
1826,-0.04334966,1.827
1827,-0.043138275,1.828
1828,-0.041046143,1.829
1829,-0.040740967,1.83
1830,-0.040603079,1.831
1831,-0.040696867,1.832
1832,-0.038821712,1.833
1833,-0.038146973,1.834
1834,-0.038299561,1.835
1835,-0.038452148,1.836
1836,-0.038590036,1.837
1837,-0.038408046,1.838
1838,-0.038176374,1.839
1839,-0.03828486,1.84
1840,-0.036773682,1.841
1841,-0.035872856,1.842
1842,-0.035996041,1.843
1843,-0.03573497,1.844
1844,-0.034992303,1.845
1845,-0.033155678,1.846
1846,-0.033446152,1.847
1847,-0.032181343,1.848
1848,-0.030822754,1.849
1849,-0.030990044,1.85
1850,-0.031113227,1.851
1851,-0.030990045,1.852
1852,-0.030778645,1.853
1853,-0.028701226,1.854
1854,-0.028366644,1.855
1855,-0.028563342,1.856
1856,-0.028548639,1.857
1857,-0.028701227,1.858
1858,-0.028396051,1.859
1859,-0.028686523,1.86
1860,-0.028533936,1.861
1861,-0.02854864,1.862
1862,-0.028410756,1.863
1863,-0.028533936,1.864
1864,-0.02854864,1.865
1865,-0.028686523,1.866
1866,-0.028671819,1.867
1867,-0.028533936,1.868
1868,-0.028475115,1.869
1869,-0.026811353,1.87
1870,-0.026092529,1.871
1871,-0.025846176,1.872
1872,-0.026092529,1.873
1873,-0.026063117,1.874
1874,-0.023941593,1.875
1875,-0.024064768,1.876
1876,-0.024217356,1.877
1877,-0.023912179,1.878
1878,-0.021500186,1.879
1879,-0.021362305,1.88
1880,-0.021362305,1.881
1881,-0.021071836,1.882
1882,-0.021180302,1.883
1883,-0.019211367,1.884
1884,-0.018891483,1.885
1885,-0.018477842,1.886
1886,-0.018906191,1.887
1887,-0.019088194,1.888
1888,-0.018891482,1.889
1889,-0.016479492,1.89
1890,-0.016203733,1.891
1891,-0.016558538,1.892
1892,-0.016174316,1.893
1893,-0.016602663,1.894
1894,-0.016464783,1.895
1895,-0.016356322,1.896
1896,-0.016326904,1.897
1897,-0.016356323,1.898
1898,-0.016326904,1.899
1899,-0.016356324,1.9
1900,-0.016450073,1.901
1901,-0.016464782,1.902
1902,-0.016203737,1.903
1903,-0.016479492,1.904
1904,-0.016218447,1.905
1905,-0.016464782,1.906
1906,-0.016312194,1.907
1907,-0.016326904,1.908
1908,-0.016755246,1.909
1909,-0.016095284,1.91
1910,-0.016341616,1.911
1911,-0.01621845,1.912
1912,-0.018507269,1.913
1913,-0.018797734,1.914
1914,-0.019044063,1.915
1915,-0.019058774,1.916
1916,-0.018477847,1.917
1917,-0.018797735,1.918
1918,-0.018891474,1.919
1919,-0.018536697,1.92
1920,-0.018783023,1.921
1921,-0.018783023,1.922
1922,-0.018935611,1.923
1923,-0.017641343,1.924
1924,-0.016312191,1.925
1925,-0.016617367,1.926
1926,-0.016464779,1.927
1927,-0.016326904,1.928
1928,-0.016312191,1.929
1929,-0.016725812,1.93
1930,-0.01618903,1.931
1931,-0.016282762,1.932
1932,-0.016356333,1.933
1933,-0.016326904,1.934
1934,-0.016450063,1.935
1935,-0.016435348,1.936
1936,-0.016218461,1.937
1937,-0.016464777,1.938
1938,-0.014052801,1.939
1939,-0.013870783,1.94
1940,-0.013856067,1.941
1941,-0.01402337,1.942
1942,-0.013595038,1.943
1943,-0.013856066,1.944
1944,-0.013870782,1.945
1945,-0.014038086,1.946
1946,-0.01397922,1.947
1947,-0.011719835,1.948
1948,-0.011581963,1.949
1949,-0.011429375,1.95
1950,-0.011429375,1.951
1951,-0.010469696,1.952
1952,-0.008850098,1.953
1953,-0.009002686,1.954
1954,-0.009839213,1.955
1955,-0.011291504,1.956
1956,-0.011444092,1.957
1957,-0.011552526,1.958
1958,-0.011335658,1.959
1959,-0.011350377,1.96
1960,-0.011414655,1.961
1961,-0.011581961,1.962
1962,-0.011581961,1.963
1963,-0.011168354,1.964
1964,-0.01159668,1.965
1965,-0.011168354,1.966
1966,-0.011320942,1.967
1967,-0.011168355,1.968
1968,-0.011690389,1.969
1969,-0.011719828,1.97
1970,-0.011734548,1.971
1971,-0.011857696,1.972
1972,-0.011734547,1.973
1973,-0.011734547,1.974
1974,-0.011734547,1.975
1975,-0.009037509,1.976
1976,-0.006684426,1.977
1977,-0.006684426,1.978
1978,-0.006452854,1.979
1979,-0.006576,1.98
1980,-0.006713867,1.981
1981,-0.006699146,1.982
1982,-0.006728589,1.983
1983,-0.006300269,1.984
1984,-0.006561279,1.985
1985,-0.006699145,1.986
1986,-0.006807567,1.987
1987,-0.006561279,1.988
1988,-0.006285548,1.989
1989,-0.005281686,1.99
1990,-0.00410515,1.991
1991,-0.003967285,1.992
1992,-0.004134596,1.993
1993,-0.004395603,1.994
1994,-0.004272461,1.995
1995,-0.004119873,1.996
1996,-0.004119873,1.997
1997,-0.004090426,1.998
1998,-0.004105149,1.999
1999,-0.004119873,2.0
2000,-0.004243013,2.001
2001,-0.004149322,2.002
2002,-0.004243012,2.003
2003,-0.002840272,2.004
2004,-0.001693191,2.005
2005,-0.001388016,2.006
2006,-0.00181633,2.007
2007,-0.001634291,2.008
2008,0.000349352,2.009
2009,0.00050194,2.01
2010,0.000639803,2.011
2011,0.003081209,2.012
2012,0.00308121,2.013
2013,0.001939465,2.014
2014,0.000777666,2.015
2015,0.000777666,2.016
2016,0.000733487,2.017
2017,0.000915527,2.018
2018,0.000748213,2.019
2019,0.000915527,2.02
2020,0.00080712,2.021
2021,0.000886073,2.022
2022,0.000610352,2.023
2023,0.000886072,2.024
2024,0.000762939,2.025
2025,0.000364087,2.026
2026,0.000930255,2.027
2027,0.00303703,2.028
2028,0.003095942,2.029
2029,0.003204346,2.03
2030,0.000856614,2.031
2031,0.000762939,2.032
2032,0.00088607,2.033
2033,0.0020131,2.034
2034,0.003327476,2.035
2035,0.003480063,2.036
2036,0.003037029,2.037
2037,0.002928629,2.038
2038,0.003233805,2.039
2039,0.003051758,2.04
2040,0.003095947,2.041
2041,0.003603189,2.042
2042,0.003342203,2.043
2043,0.003066488,2.044
2044,0.002790773,2.045
2045,0.003356934,2.046
2046,0.002943362,2.047
2047,0.003066489,2.048
2048,0.003037027,2.049
2049,0.003189615,2.05
2050,0.002913901,2.051
2051,0.003189614,2.052
2052,0.003204346,2.053
2053,0.003219077,2.054
2054,0.002928634,2.055
2055,0.002913902,2.056
2056,0.003189614,2.057
2057,0.00323381,2.058
2058,0.003342201,2.059
2059,0.003356934,2.06
2060,0.003219078,2.061
2061,0.003342201,2.062
2062,0.003219079,2.063
2063,0.003189613,2.064
2064,0.002928637,2.065
2065,0.003066491,2.066
2066,0.002928637,2.067
2067,0.003110693,2.068
2068,0.0033422,2.069
2069,0.003081226,2.07
2070,0.002958107,2.071
2071,0.004223013,2.072
2072,0.005827809,2.073
2073,0.005507899,2.074
2074,0.005754136,2.075
2075,0.005645752,2.076
2076,0.005645752,2.077
2077,0.005645752,2.078
2078,0.00579834,2.079
2079,0.0055079,2.08
2080,0.005783604,2.081
2081,0.005522636,2.082
2082,0.00579834,2.083
2083,0.005783604,2.084
2084,0.005370049,2.085
2085,0.005645752,2.086
2086,0.005507901,2.087
2087,0.005768867,2.088
2088,0.005631015,2.089
2089,0.005660489,2.09
2090,0.005645752,2.091
2091,0.005768865,2.092
2092,0.005616277,2.093
2093,0.005675227,2.094
2094,0.005768865,2.095
2095,0.005645752,2.096
2096,0.005891976,2.097
2097,0.005783602,2.098
2098,0.005754125,2.099
2099,0.005645752,2.1
2100,0.005645752,2.101
2101,0.00579834,2.102
2102,0.005493164,2.103
2103,0.005783601,2.104
2104,0.00567523,2.105
2105,0.005507903,2.106
2106,0.005384794,2.107
2107,0.005950928,2.108
2108,0.0057836,2.109
2109,0.005384795,2.11
2110,0.004503937,2.111
2111,0.003160126,2.112
2112,0.003219086,2.113
2113,0.003204346,2.114
2114,0.003356934,2.115
2115,0.003081239,2.116
2116,0.003204346,2.117
2117,0.003066499,2.118
2118,0.00349478,2.119
2119,0.003342192,2.12
2120,0.003066499,2.121
2121,0.003081241,2.122
2122,0.00332745,2.123
2123,0.003189604,2.124
2124,0.002958138,2.125
2125,0.005064885,2.126
2126,0.005522648,2.127
2127,0.00579834,2.128
2128,0.006743352,2.129
2129,0.008362849,2.13
2130,0.008101901,2.131
2131,0.007964056,2.132
2132,0.008195517,2.133
2133,0.009243733,2.134
2134,0.010528564,2.135
2135,0.010543308,2.136
2136,0.01151781,2.137
2137,0.012969971,2.138
2138,0.012817383,2.139
2139,0.012955227,2.14
2140,0.012846871,2.141
2141,0.012846872,2.142
2142,0.012969971,2.143
2143,0.013107814,2.144
2144,0.013107814,2.145
2145,0.012802638,2.146
2146,0.012512207,2.147
2147,0.011232523,2.148
2148,0.010651662,2.149
2149,0.010818995,2.15
2150,0.010361231,2.151
2151,0.010681152,2.152
2152,0.010361231,2.153
2153,0.008377588,2.154
2154,0.007964063,2.155
2155,0.008057665,2.156
2156,0.008101905,2.157
2157,0.008072412,2.158
2158,0.007919824,2.159
2159,0.008239746,2.16
2160,0.008239746,2.161
2161,0.007949318,2.162
2162,0.008362839,2.163
2163,0.008087158,2.164
2164,0.007949318,2.165
2165,0.00807241,2.166
2166,0.00807241,2.167
2167,0.008087158,2.168
2168,0.00807241,2.169
2169,0.008210249,2.17
2170,0.008101907,2.171
2171,0.008087158,2.172
2172,0.009366857,2.173
2173,0.010543313,2.174
2174,0.01095683,2.175
2175,0.010636905,2.176
2176,0.010513815,2.177
2177,0.010528564,2.178
2178,0.010361227,2.179
2179,0.010942079,2.18
2180,0.010405476,2.181
2181,0.010528564,2.182
2182,0.008530172,2.183
2183,0.007978821,2.184
2184,0.008239746,2.185
2185,0.007978822,2.186
2186,0.008072407,2.187
2187,0.008087158,2.188
2188,0.008210244,2.189
2189,0.007964073,2.19
2190,0.008072407,2.191
2191,0.008116661,2.192
2192,0.008087158,2.193
2193,0.008210242,2.194
2194,0.007949322,2.195
2195,0.00793457,2.196
2196,0.00810191,2.197
2197,0.008101911,2.198
2198,0.008072406,2.199
2199,0.007964076,2.2
2200,0.008101911,2.201
2201,0.008116664,2.202
2202,0.008377581,2.203
2203,0.008116665,2.204
2204,0.008101912,2.205
2205,0.010115061,2.206
2206,0.010543318,2.207
2207,0.01039073,2.208
2208,0.011626188,2.209
2209,0.012984725,2.21
2210,0.012694303,2.211
2211,0.012118505,2.212
2212,0.01042024,2.213
2213,0.010804231,2.214
2214,0.010681152,2.215
2215,0.010375977,2.216
2216,0.010499054,2.217
2217,0.008362823,2.218
2218,0.008180724,2.219
2219,0.007964081,2.22
2220,0.008254502,2.221
2221,0.008239746,2.222
2222,0.007949326,2.223
2223,0.008087158,2.224
2224,0.007235681,2.225
2225,0.005630996,2.226
2226,0.005783583,2.227
2227,0.005783583,2.228
2228,0.005645752,2.229
2229,0.005630995,2.23
2230,0.005660509,2.231
2231,0.005630995,2.232
2232,0.005586722,2.233
2233,0.003647352,2.234
2234,0.003051758,2.235
2235,0.002913928,2.236
2236,0.001801539,2.237
2237,0.000900769,2.238
2238,0.00062511,2.239
2239,0.000748181,2.24
2240,0.000777698,2.241
2241,0.000639869,2.242
2242,0.000900768,2.243
2243,0.000915527,2.244
2244,0.001009079,2.245
2245,-0.001540638,2.246
2246,-0.001250222,2.247
2247,-0.001801536,2.248
2248,-0.001373291,2.249
2249,-0.00068914,2.25
2250,0.000777699,2.251
2251,0.000748179,2.252
2252,0.000639872,2.253
2253,0.000502045,2.254
2254,0.000610352,2.255
2255,0.000915527,2.256
2256,0.000625112,2.257
2257,0.000792461,2.258
2258,0.000762939,2.259
2259,0.000777701,2.26
2260,0.000777701,2.261
2261,0.000733416,2.262
2262,0.000762939,2.263
2263,0.001191179,2.264
2264,0.000777701,2.265
2265,0.000531574,2.266
2266,-0.000255924,2.267
2267,-0.001663704,2.268
2268,-0.001895067,2.269
2269,-0.001845817,2.27
2270,-0.001816292,2.271
2271,-0.001540642,2.272
2272,-0.001968879,2.273
2273,-0.001678467,2.274
2274,-0.00164894,2.275
2275,-0.001801528,2.276
2276,-0.001678467,2.277
2277,-0.001816291,2.278
2278,-0.001525879,2.279
2279,-0.000413471,2.28
2280,0.000930292,2.281
2281,0.000762939,2.282
2282,0.000487293,2.283
2283,0.000625116,2.284
2284,0.000625116,2.285
2285,0.00105335,2.286
2286,0.000595586,2.287
2287,0.000930293,2.288
2288,0.000639882,2.289
2289,0.000733408,2.29
2290,0.000900762,2.291
2291,0.000777705,2.292
2292,0.000487296,2.293
2293,0.000502062,2.294
2294,0.000900761,2.295
2295,0.000900761,2.296
2296,0.001009049,2.297
2297,0.000777706,2.298
2298,0.001068115,2.299
2299,0.000639886,2.3
2300,0.00090076,2.301
2301,0.000777707,2.302
2302,0.000639886,2.303
2303,0.000762939,2.304
2304,0.00090076,2.305
2305,0.000945063,2.306
2306,0.002500478,2.307
2307,0.003081294,2.308
2308,0.003342165,2.309
2309,0.003327397,2.31
2310,0.003022221,2.311
2311,0.004361073,2.312
2312,0.005630983,2.313
2313,0.005355345,2.314
2314,0.005645752,2.315
2315,0.005645752,2.316
2316,0.004365971,2.317
2317,0.003204346,2.318
2318,0.003036988,2.319
2319,0.001191163,2.32
2320,0.000733399,2.321
2321,-0.001388061,2.322
2322,-0.002943481,2.323
2323,-0.00425769,2.324
2324,-0.003859009,2.325
2325,-0.006177369,2.326
2326,-0.006516967,2.327
2327,-0.004533324,2.328
2328,-0.00384424,2.329
2329,-0.004075559,2.33
2330,-0.001693238,2.331
2331,-0.000551265,2.332
2332,0.001904914,2.333
2333,0.004316777,2.334
2334,0.007688483,2.335
2335,0.010238161,2.336
2336,0.014234991,2.337
2337,0.016705943,2.338
2338,0.019117804,2.339
2339,0.020323735,2.34
2340,0.021160539,2.341
2341,0.022902957,2.342
2342,0.022888184,2.343
2343,0.022888184,2.344
2344,0.022888184,2.345
2345,0.023178586,2.346
2346,0.022888184,2.347
2347,0.02275037,2.348
2348,0.02275037,2.349
2349,0.022597782,2.35
2350,0.022873409,2.351
2351,0.022597782,2.352
2352,0.023011222,2.353
2353,0.022735596,2.354
2354,0.022829084,2.355
2355,0.02058459,2.356
2356,0.020048115,2.357
2357,0.019319561,2.358
2358,0.017990596,2.359
2359,0.016587753,2.36
2360,0.015273565,2.361
2361,0.013275146,2.362
2362,0.011719715,2.363
2363,0.010499012,2.364
2364,0.008515369,2.365
2365,0.006822126,2.366
2366,0.005921374,2.367
2367,0.004351165,2.368
2368,0.003356934,2.369
2369,0.002121453,2.37
2370,0.000625129,2.371
2371,0.000610352,2.372
2372,0.000885972,2.373
2373,0.000580796,2.374
2374,-0.001540657,2.375
2375,-0.001540657,2.376
2376,-0.001801499,2.377
2377,-0.001265038,2.378
2378,-0.003096093,2.379
2379,-0.004272461,2.38
2380,-0.004380713,2.381
2381,-0.00390337,2.382
2382,-0.006393912,2.383
2383,-0.006300441,2.384
2384,-0.006822117,2.385
2385,-0.006684308,2.386
2386,-0.006256104,2.387
2387,-0.004257681,2.388
2388,-0.004257681,2.389
2389,-0.004272461,2.39
2390,-0.003662109,2.391
2391,-0.001693247,2.392
2392,-0.001525879,2.393
2393,0.000182149,2.394
2394,0.000885966,2.395
2395,0.002057547,2.396
2396,0.003204346,2.397
2397,0.003219127,2.398
2398,0.003327371,2.399
2399,0.003219127,2.4
2400,0.00349474,2.401
2401,0.003189564,2.402
2402,0.003342152,2.403
2403,0.003342152,2.404
2404,0.002913952,2.405
2405,0.003327369,2.406
2406,0.003189563,2.407
2407,0.003051758,2.408
2408,0.003189563,2.409
2409,0.003081323,2.41
2410,0.003051758,2.411
2411,0.003494738,2.412
2412,0.002200119,2.413
2413,0.000595568,2.414
2414,0.000748156,2.415
2415,0.000915527,2.416
2416,0.000733372,2.417
2417,0.000748155,2.418
2418,0.000777724,2.419
2419,0.000945096,2.42
2420,0.003036973,2.421
2421,0.003465168,2.422
2422,0.003066543,2.423
2423,0.003110897,2.424
2424,0.005370146,2.425
2425,0.005891787,2.426
2426,0.004228105,2.427
2427,0.003356934,2.428
2428,0.003066543,2.429
2429,0.003327362,2.43
2430,0.003174774,2.431
2431,0.003159988,2.432
2432,0.00318956,2.433
2433,0.003204346,2.434
2434,0.003174773,2.435
2435,0.005217561,2.436
2436,0.005507951,2.437
2437,0.005660539,2.438
2438,0.005630965,2.439
2439,0.005827914,2.44
2440,0.008072371,2.441
2441,0.008087158,2.442
2442,0.008101946,2.443
2443,0.008101946,2.444
2444,0.008239746,2.445
2445,0.008224958,2.446
2446,0.006851667,2.447
2447,0.005616175,2.448
2448,0.003312568,2.449
2449,0.000994172,2.45
2450,-0.001417657,2.451
2451,-0.004602515,2.452
2452,-0.009746138,2.453
2453,-0.014811118,2.454
2454,-0.020973792,2.455
2455,-0.030434244,2.456
2456,-0.039968643,2.457
2457,-0.05342596,2.458
2458,-0.06810398,2.459
2459,-0.084780433,2.46
2460,-0.102889339,2.461
2461,-0.120638596,2.462
2462,-0.136325571,2.463
2463,-0.151082229,2.464
2464,-0.164711607,2.465
2465,-0.172326213,2.466
2466,-0.177489299,2.467
2467,-0.179901123,2.468
2468,-0.177021419,2.469
2469,-0.17207944,2.47
2470,-0.162530239,2.471
2471,-0.150387043,2.472
2472,-0.132583301,2.473
2473,-0.112047767,2.474
2474,-0.086491623,2.475
2475,-0.058311899,2.476
2476,-0.026972204,2.477
2477,0.008044393,2.478
2478,0.045684572,2.479
2479,0.089260887,2.48
2480,0.136666695,2.481
2481,0.186607326,2.482
2482,0.236641373,2.483
2483,0.288019123,2.484
2484,0.337014641,2.485
2485,0.386241366,2.486
2486,0.433666623,2.487
2487,0.479900764,2.488
2488,0.524441644,2.489
2489,0.568234379,2.49
2490,0.614729313,2.491
2491,0.658935427,2.492
2492,0.700483727,2.493
2493,0.744123874,2.494
2494,0.785809968,2.495
2495,0.827545084,2.496
2496,0.867921704,2.497
2497,0.904911797,2.498
2498,0.937068095,2.499
2499,0.959581761,2.5
2500,0.971310699,2.501
2501,0.968622389,2.502
2502,0.951556591,2.503
2503,0.921688201,2.504
2504,0.880833477,2.505
2505,0.831399611,2.506
2506,0.774764519,2.507
2507,0.714630079,2.508
2508,0.65254159,2.509
2509,0.591659008,2.51
2510,0.530348256,2.511
2511,0.472758805,2.512
2512,0.416301272,2.513
2513,0.360331099,2.514
2514,0.305763813,2.515
2515,0.253623136,2.516
2516,0.204352034,2.517
2517,0.155612688,2.518
2518,0.109880705,2.519
2519,0.065718999,2.52
2520,0.025357192,2.521
2521,-0.012410619,2.522
2522,-0.046974083,2.523
2523,-0.078165813,2.524
2524,-0.106030206,2.525
2525,-0.130719851,2.526
2526,-0.154114794,2.527
2527,-0.171923182,2.528
2528,-0.187718327,2.529
2529,-0.201180253,2.53
2530,-0.211433244,2.531
2531,-0.219751579,2.532
2532,-0.225401915,2.533
2533,-0.227735136,2.534
2534,-0.229004822,2.535
2535,-0.227021179,2.536
2536,-0.225465698,2.537
2537,-0.222965087,2.538
2538,-0.219514769,2.539
2539,-0.216221614,2.54
2540,-0.212205351,2.541
2541,-0.208375852,2.542
2542,-0.206072231,2.543
2543,-0.20376861,2.544
2544,-0.200899043,2.545
2545,-0.199860532,2.546
2546,-0.197783511,2.547
2547,-0.196001426,2.548
2548,-0.195115504,2.549
2549,-0.193727409,2.55
2550,-0.192339315,2.551
2551,-0.192536312,2.552
2552,-0.192398527,2.553
2553,-0.190262296,2.554
2554,-0.190094904,2.555
2555,-0.190217885,2.556
2556,-0.187820889,2.557
2557,-0.187668301,2.558
2558,-0.185241699,2.559
2559,-0.183961779,2.56
2560,-0.18266251,2.561
2561,-0.182480313,2.562
2562,-0.180634453,2.563
2563,-0.18046706,2.564
2564,-0.180437449,2.565
2565,-0.178453806,2.566
2566,-0.177641915,2.567
2567,-0.176470162,2.568
2568,-0.17520051,2.569
2569,-0.174073172,2.57
2570,-0.172714686,2.571
2571,-0.170593262,2.572
2572,-0.170578456,2.573
2573,-0.169313333,2.574
2574,-0.167861486,2.575
2575,-0.167024514,2.576
2576,-0.165818617,2.577
2577,-0.164415711,2.578
2578,-0.162978674,2.579
2579,-0.160645434,2.58
2580,-0.15838623,2.581
2581,-0.156815929,2.582
2582,-0.155885594,2.583
2583,-0.153503418,2.584
2584,-0.152070895,2.585
2585,-0.150879808,2.586
2586,-0.148743577,2.587
2587,-0.148468018,2.588
2588,-0.147158463,2.589
2589,-0.145903641,2.59
2590,-0.146011803,2.591
2591,-0.143752602,2.592
2592,-0.143585205,2.593
2593,-0.141143799,2.594
2594,-0.140976402,2.595
2595,-0.139115728,2.596
2596,-0.137299482,2.597
2597,-0.136369145,2.598
2598,-0.13381958,2.599
2599,-0.132692224,2.6
2600,-0.131486331,2.601
2601,-0.129089355,2.602
2602,-0.127656822,2.603
2603,-0.126741294,2.604
2604,-0.124009523,2.605
2605,-0.122882163,2.606
2606,-0.121474772,2.607
2607,-0.119584473,2.608
2608,-0.117891194,2.609
2609,-0.116532714,2.61
2610,-0.114519448,2.611
2611,-0.111999512,2.612
2612,-0.110444009,2.613
2613,-0.10832259,2.614
2614,-0.106796711,2.615
2615,-0.104522705,2.616
2616,-0.104064941,2.617
2617,-0.102356849,2.618
2618,-0.102096112,2.619
2619,-0.100648756,2.62
2620,-0.099457678,2.621
2621,-0.097336261,2.622
2622,-0.096863684,2.623
2623,-0.09515559,2.624
2624,-0.093491936,2.625
2625,-0.092133458,2.626
2626,-0.090912755,2.627
2627,-0.089829825,2.628
2628,-0.089431318,2.629
2629,-0.089706865,2.63
2630,-0.087432861,2.631
2631,-0.087265459,2.632
2632,-0.087280273,2.633
2633,-0.087358786,2.634
2634,-0.085114413,2.635
2635,-0.08497664,2.636
2636,-0.084809236,2.637
2637,-0.082825594,2.638
2638,-0.082520417,2.639
2639,-0.081255267,2.64
2640,-0.079833099,2.641
2641,-0.079926422,2.642
2642,-0.077667236,2.643
2643,-0.077637604,2.644
2644,-0.076249496,2.645
2645,-0.074876204,2.646
2646,-0.072922195,2.647
2647,-0.072479248,2.648
2648,-0.070465971,2.649
2649,-0.068910457,2.65
2650,-0.067719389,2.651
2651,-0.066592003,2.652
2652,-0.065445387,2.653
2653,-0.065445387,2.654
2654,-0.064027642,2.655
2655,-0.062881029,2.656
2656,-0.062881029,2.657
2657,-0.062590672,2.658
2658,-0.061738821,2.659
2659,-0.060409986,2.66
2660,-0.059282595,2.661
2661,-0.057693042,2.662
2662,-0.05656565,2.663
2663,-0.055512354,2.664
2664,-0.053361303,2.665
2665,-0.052825049,2.666
2666,-0.051850243,2.667
2667,-0.05064436,2.668
2668,-0.050506592,2.669
2669,-0.049379196,2.67
2670,-0.048370361,2.671
2671,-0.047075556,2.672
2672,-0.045668241,2.673
2673,-0.044648969,2.674
2674,-0.043182373,2.675
2675,-0.042207562,2.676
2676,-0.0406032,2.677
2677,-0.040632843,2.678
2678,-0.040740967,2.679
2679,-0.038835804,2.68
2680,-0.038299561,2.681
2681,-0.038437327,2.682
2682,-0.037157335,2.683
2683,-0.035735211,2.684
2684,-0.035690744,2.685
2685,-0.033982632,2.686
2686,-0.03326416,2.687
2687,-0.033111572,2.688
2688,-0.03112793,2.689
2689,-0.031236049,2.69
2690,-0.028809465,2.691
2691,-0.027514645,2.692
2692,-0.026230294,2.693
2693,-0.026077706,2.694
2694,-0.024842179,2.695
2695,-0.023665947,2.696
2696,-0.023651123,2.697
2697,-0.024019942,2.698
2698,-0.021362305,2.699
2699,-0.021209717,2.7
2700,-0.02134748,2.701
2701,-0.021362305,2.702
2702,-0.021332655,2.703
2703,-0.021209717,2.704
2704,-0.021224542,2.705
2705,-0.02108678,2.706
2706,-0.021362305,2.707
2707,-0.021224542,2.708
2708,-0.020220061,2.709
2709,-0.01905866,2.71
2710,-0.018935724,2.711
2711,-0.018571244,2.712
2712,-0.016863124,2.713
2713,-0.016312078,2.714
2714,-0.014190674,2.715
2715,-0.013870671,2.716
2716,-0.011872202,2.717
2717,-0.011335985,2.718
2718,-0.01016408,2.719
2719,-0.009002686,2.72
2720,-0.008879753,2.721
2721,-0.00787526,2.722
2722,-0.006438347,2.723
2723,-0.005158333,2.724
2724,-0.004227977,2.725
2725,-0.00303693,2.726
2726,-0.001678467,2.727
2727,-0.00026069,2.728
2728,0.000807425,2.729
2729,0.002913999,2.73
2730,0.004469535,2.731
2731,0.005813169,2.732
2732,0.007811641,2.733
2733,0.00922942,2.734
2734,0.010956669,2.735
2735,0.012709284,2.736
2736,0.014235163,2.737
2737,0.016538812,2.738
2738,0.018872121,2.739
2739,0.02035351,2.74
2740,0.022765256,2.741
2741,0.025009584,2.742
2742,0.026442197,2.743
2743,0.027800658,2.744
2744,0.030074645,2.745
2745,0.031325011,2.746
2746,0.032407958,2.747
2747,0.034667114,2.748
2748,0.035110046,2.749
2749,0.037246277,2.75
2750,0.037551453,2.751
2751,0.03965802,2.752
2752,0.040785463,2.753
2753,0.041823914,2.754
2754,0.043241702,2.755
2755,0.044570497,2.756
2756,0.044555664,2.757
2757,0.045697943,2.758
2758,0.047026736,2.759
2759,0.049285889,2.76
2760,0.049620731,2.761
2761,0.051727295,2.762
2762,0.053145086,2.763
2763,0.054488711,2.764
2764,0.056747862,2.765
2765,0.056959785,2.766
2766,0.058697588,2.767
2767,0.061507754,2.768
2768,0.062925548,2.769
2769,0.065229202,2.77
2770,0.06655799,2.771
2771,0.068709055,2.772
2772,0.068984561,2.773
2773,0.071258545,2.774
2774,0.071563721,2.775
2775,0.073685116,2.776
2776,0.073867375,2.777
2777,0.073774129,2.778
2778,0.076141357,2.779
2779,0.076323617,2.78
2780,0.078046592,2.781
2781,0.078765024,2.782
2782,0.081039006,2.783
2783,0.081068679,2.784
2784,0.08345074,2.785
2785,0.083662674,2.786
2786,0.085892145,2.787
2787,0.085906982,2.788
2788,0.085769232,2.789
2789,0.087078959,2.79
2790,0.088638727,2.791
2791,0.088348389,2.792
2792,0.088318713,2.793
2793,0.088378065,2.794
2794,0.088530653,2.795
2795,0.088363227,2.796
2796,0.090666884,2.797
2797,0.091065294,2.798
2798,0.090804634,2.799
2799,0.090957222,2.8
2800,0.090789795,2.801
2801,0.090912705,2.802
2802,0.088806152,2.803
2803,0.088515816,2.804
2804,0.086792831,2.805
2805,0.085985372,2.806
2806,0.083785592,2.807
2807,0.083588484,2.808
2808,0.081392893,2.809
2809,0.07890278,2.81
2810,0.077607875,2.811
2811,0.074768066,2.812
2812,0.072710221,2.813
2813,0.070283654,2.814
2814,0.067615455,2.815
2815,0.064455631,2.816
2816,0.060670616,2.817
2817,0.058017255,2.818
2818,0.0534693,2.819
2819,0.050432383,2.82
2820,0.045992492,2.821
2821,0.043353971,2.822
2822,0.038943763,2.823
2823,0.034656459,2.824
2824,0.031481797,2.825
2825,0.026859631,2.826
2826,0.022036188,2.827
2827,0.019122175,2.828
2828,0.014269047,2.829
2829,0.009661723,2.83
2830,0.005891555,2.831
2831,0.002199758,2.832
2832,-0.001462352,2.833
2833,-0.00515415,2.834
2834,-0.007748145,2.835
2835,-0.012340627,2.836
2836,-0.015057522,2.837
2837,-0.019344828,2.838
2838,-0.02265723,2.839
2839,-0.027082279,2.84
2840,-0.029691119,2.841
2841,-0.033048053,2.842
2842,-0.037182772,2.843
2843,-0.040588379,2.844
2844,-0.044216662,2.845
2845,-0.0469484,2.846
2846,-0.050413386,2.847
2847,-0.052825102,2.848
2848,-0.056256265,2.849
2849,-0.058973156,2.85
2850,-0.061552304,2.851
2851,-0.063900508,2.852
2852,-0.06747354,2.853
2853,-0.069304595,2.854
2854,-0.07147052,2.855
2855,-0.072553482,2.856
2856,-0.074935501,2.857
2857,-0.075117784,2.858
2858,-0.076978533,2.859
2859,-0.077559191,2.86
2860,-0.079513139,2.861
2861,-0.080108643,2.862
2862,-0.082107133,2.863
2863,-0.082442005,2.864
2864,-0.082092285,2.865
2865,-0.082259721,2.866
2866,-0.082550049,2.867
2867,-0.082230024,2.868
2868,-0.0825352,2.869
2869,-0.082259722,2.87
2870,-0.082367763,2.871
2871,-0.082382612,2.872
2872,-0.082397461,2.873
2873,-0.08242716,2.874
2874,-0.082107135,2.875
2875,-0.082136834,2.876
2876,-0.081284796,2.877
2877,-0.079970905,2.878
2878,-0.079941205,2.879
2879,-0.079680579,2.88
2880,-0.07969543,2.881
2881,-0.079970905,2.882
2882,-0.079833168,2.883
2883,-0.079695431,2.884
2884,-0.079911502,2.885
2885,-0.078936569,2.886
2886,-0.077637534,2.887
2887,-0.077239175,2.888
2888,-0.077484945,2.889
2889,-0.075333863,2.89
2890,-0.07505839,2.891
2891,-0.075210978,2.892
2892,-0.072631836,2.893
2893,-0.072508953,2.894
2894,-0.072754719,2.895
2895,-0.07035787,2.896
2896,-0.069914959,2.897
2897,-0.070052695,2.898
2898,-0.070008136,2.899
2899,-0.067886758,2.9
2900,-0.067871905,2.901
2901,-0.067458701,2.902
2902,-0.067473555,2.903
2903,-0.066621493,2.904
2904,-0.065460205,2.905
2905,-0.065032149,2.906
2906,-0.064425845,2.907
2907,-0.06298909,2.908
2908,-0.06298909,2.909
2909,-0.061600944,2.91
2910,-0.060395095,2.911
2911,-0.060301927,2.912
2912,-0.06040995,2.913
2913,-0.059129826,2.914
2914,-0.057983398,2.915
2915,-0.058106275,2.916
2916,-0.058106275,2.917
2917,-0.055679724,2.918
2918,-0.055497425,2.919
2919,-0.053543494,2.92
2920,-0.052918286,2.921
2921,-0.050949499,2.922
2922,-0.049408764,2.923
2923,-0.048355505,2.924
2924,-0.04818806,2.925
2925,-0.046814769,2.926
2926,-0.045776367,2.927
2927,-0.045638636,2.928
2928,-0.045884383,2.929
2929,-0.043502406,2.93
2930,-0.043167515,2.931
2931,-0.043197231,2.932
2932,-0.042315428,2.933
2933,-0.040863839,2.934
2934,-0.040863838,2.935
2935,-0.041031284,2.936
2936,-0.041016426,2.937
2937,-0.040878696,2.938
2938,-0.040740967,2.939
2939,-0.040618097,2.94
2940,-0.040726108,2.941
2941,-0.040770685,2.942
2942,-0.040740967,2.943
2943,-0.040878695,2.944
2944,-0.040848976,2.945
2945,-0.040558659,2.946
2946,-0.038727604,2.947
2947,-0.038575016,2.948
2948,-0.038299561,2.949
2949,-0.038422428,2.95
2950,-0.036315918,2.951
2951,-0.036271336,2.952
2952,-0.036025603,2.953
2953,-0.035720427,2.954
2954,-0.036089025,2.955
2955,-0.033721924,2.956
2956,-0.033554475,2.957
2957,-0.03343161,2.958
2958,-0.033584198,2.959
2959,-0.03241205,2.96
2960,-0.030975342,2.961
2961,-0.030975342,2.962
2962,-0.031113068,2.963
2963,-0.032270357,2.964
2964,-0.033416748,2.965
2965,-0.033662473,2.966
2966,-0.030960479,2.967
2967,-0.03085248,2.968
2968,-0.030975342,2.969
2969,-0.031098203,2.97
2970,-0.030990205,2.971
2971,-0.031098203,2.972
2972,-0.032363496,2.973
2973,-0.033416748,2.974
2974,-0.033401884,2.975
2975,-0.033539608,2.976
2976,-0.033692195,2.977
2977,-0.03317103,2.978
2978,-0.033416748,2.979
2979,-0.033446477,2.98
2980,-0.033156167,2.981
2981,-0.03218118,2.982
2982,-0.031142795,2.983
2983,-0.030960477,2.984
2984,-0.03062557,2.985
2985,-0.028563667,2.986
2986,-0.028258491,2.987
2987,-0.02862706,2.988
2988,-0.026535427,2.989
2989,-0.026092529,2.99
2990,-0.026230251,2.991
2991,-0.026215384,2.992
2992,-0.026137129,2.993
2993,-0.028824245,2.994
2994,-0.028396214,2.995
2995,-0.028686523,2.996
2996,-0.027544073,2.997
2997,-0.025939941,2.998
2998,-0.026215382,2.999
2999,-0.025910206,3.0
3000,-0.024202004,3.001
3001,-0.023498535,3.002
3002,-0.023621387,3.003
3003,-0.023803711,3.004
3004,-0.023665991,3.005
3005,-0.023513404,3.006
3006,-0.02407915,3.007
3007,-0.023513404,3.008
3008,-0.023956299,3.009
3009,-0.023773973,3.01
3010,-0.023833449,3.011
3011,-0.023606515,3.012
3012,-0.021485154,3.013
3013,-0.021500023,3.014
3014,-0.021209717,3.015
3015,-0.021239456,3.016
3016,-0.021239457,3.017
3017,-0.020949151,3.018
3018,-0.021347434,3.019
3019,-0.021209717,3.02
3020,-0.021224587,3.021
3021,-0.021072,3.022
3022,-0.021072,3.023
3023,-0.021194846,3.024
3024,-0.022352187,3.025
3025,-0.023498535,3.026
3026,-0.023803711,3.027
3027,-0.023680866,3.028
3028,-0.023651123,3.029
3029,-0.023665995,3.03
3030,-0.023926555,3.031
3031,-0.023513407,3.032
3032,-0.023606506,3.033
3033,-0.021622863,3.034
3034,-0.021209717,3.035
3035,-0.021377177,3.036
3036,-0.02008211,3.037
3037,-0.018906025,3.038
3038,-0.019181455,3.039
3039,-0.018891152,3.04
3040,-0.018920898,3.041
3041,-0.018738564,3.042
3042,-0.018798058,3.043
3043,-0.018478009,3.044
3044,-0.018768311,3.045
3045,-0.018738562,3.046
3046,-0.018798059,3.047
3047,-0.021194842,3.048
3048,-0.021500018,3.049
3049,-0.021485143,3.05
3050,-0.02137718,3.051
3051,-0.021086879,3.052
3052,-0.021101754,3.053
3053,-0.021485142,3.054
3054,-0.019974138,3.055
3055,-0.018906023,3.056
3056,-0.019013984,3.057
3057,-0.016617204,3.058
3058,-0.01605148,3.059
3059,-0.01634178,3.06
3060,-0.016356657,3.061
3061,-0.016051481,3.062
3062,-0.014771272,3.063
3063,-0.014313508,3.064
3064,-0.015027997,3.065
3065,-0.016326904,3.066
3066,-0.016282273,3.067
3067,-0.014190674,3.068
3068,-0.013747788,3.069
3069,-0.014268874,3.07
3070,-0.014160918,3.071
3071,-0.014313506,3.072
3072,-0.01387062,3.073
3073,-0.013915254,3.074
3074,-0.014023208,3.075
3075,-0.01387062,3.076
3076,-0.014905175,3.077
3077,-0.016036607,3.078
3078,-0.016557686,3.079
3079,-0.014052965,3.08
3080,-0.01373291,3.081
3081,-0.013900377,3.082
3082,-0.013762669,3.083
3083,-0.014038086,3.084
3084,-0.013870618,3.085
3085,-0.01374779,3.086
3086,-0.01371803,3.087
3087,-0.011872095,3.088
3088,-0.011566919,3.089
3089,-0.011764148,3.09
3090,-0.013610083,3.091
3091,-0.013915259,3.092
3092,-0.013900379,3.093
3093,-0.013870617,3.094
3094,-0.013762672,3.095
3095,-0.014008323,3.096
3096,-0.014008323,3.097
3097,-0.01390038,3.098
3098,-0.014175792,3.099
3099,-0.014023204,3.1
3100,-0.01356544,3.101
3101,-0.011611562,3.102
3102,-0.011183563,3.103
3103,-0.011399445,3.104
3104,-0.009583272,3.105
3105,-0.00897292,3.106
3106,-0.009140391,3.107
3107,-0.009278095,3.108
3108,-0.008864981,3.109
3109,-0.009155273,3.11
3110,-0.008195096,3.111
3111,-0.0066841,3.112
3112,-0.006698983,3.113
3113,-0.006546395,3.114
3114,-0.006792035,3.115
3115,-0.004257577,3.116
3116,-0.003967285,3.117
3117,-0.004257577,3.118
3118,-0.005675521,3.119
3119,-0.006698982,3.12
3120,-0.006438461,3.121
3121,-0.006270989,3.122
3122,-0.006408691,3.123
3123,-0.004395278,3.124
3124,-0.004395278,3.125
3125,-0.004119873,3.126
3126,-0.004090102,3.127
3127,-0.004134759,3.128
3128,-0.004119873,3.129
3129,-0.004119873,3.13
3130,-0.005385235,3.131
3131,-0.006531506,3.132
3132,-0.00627099,3.133
3133,-0.006669207,3.134
3134,-0.004685564,3.135
3135,-0.004119873,3.136
3136,-0.004119873,3.137
3137,-0.003829585,3.138
3138,-0.003829585,3.139
3139,-0.002824732,3.14
3140,-0.001525879,3.141
3141,-0.001678467,3.142
3142,-0.001741727,3.143
3143,0.000502428,3.144
3144,0.000655016,3.145
3145,0.000748051,3.146
3146,0.000915527,3.147
3147,0.000487541,3.148
3148,0.000748051,3.149
3149,0.00064013,3.15
3150,0.000762939,3.151
3151,0.000762939,3.152
3152,0.00074805,3.153
3153,0.00074805,3.154
3154,0.000762939,3.155
3155,-0.000334956,3.156
3156,-0.001388181,3.157
3157,-0.001540769,3.158
3158,-0.001953862,3.159
3159,-0.001831055,3.16
3160,-0.001388182,3.161
3161,-0.001693358,3.162
3162,-0.001693358,3.163
3163,-0.001525879,3.164
3164,-0.001678467,3.165
3165,-0.001403074,3.166
3166,-0.001678467,3.167
3167,-0.001816163,3.168
3168,-0.001648683,3.169
3169,-0.001525879,3.17
3170,-0.001648683,3.171
3171,-0.001295164,3.172
3172,-0.001540771,3.173
3173,-0.001845947,3.174
3174,-0.001618896,3.175
3175,0.000487549,3.176
3176,0.001176024,3.177
3177,0.000640138,3.178
3178,0.001038329,3.179
3179,0.000748046,3.18
3180,0.000502444,3.181
3181,0.000762939,3.182
3182,-0.000517339,3.183
3183,-0.001540773,3.184
3184,-0.001678467,3.185
3185,-0.001496091,3.186
3186,-0.001801266,3.187
3187,-0.001801266,3.188
3188,-0.001373291,3.189
3189,-0.001678467,3.19
3190,-0.001555669,3.191
3191,-0.001678467,3.192
3192,-0.001693362,3.193
3193,-0.00155567,3.194
3194,-0.001723153,3.195
3195,-0.001693362,3.196
3196,-0.001693363,3.197
3197,-0.001663571,3.198
3198,-0.001968747,3.199
3199,-0.001540775,3.2
3200,-0.001633778,3.201
3201,-0.001816158,3.202
3202,-0.001693363,3.203
3203,-0.001816158,3.204
3204,-0.000658661,3.205
3205,0.000595455,3.206
3206,0.000885733,3.207
3207,0.000762939,3.208
3208,0.000655044,3.209
3209,0.00090063,3.21
3210,0.000457764,3.211
3211,0.000472662,3.212
3212,0.000885731,3.213
3213,0.000610352,3.214
3214,0.000442865,3.215
3215,-0.00151098,3.216
3216,-0.001816156,3.217
3217,-0.001540778,3.218
3218,-0.001786358,3.219
3219,-0.003066657,3.22
3220,-0.004075175,3.221
3221,-0.004227763,3.222
3222,-0.004149672,3.223
3223,-0.004011984,3.224
3224,-0.006148215,3.225
3225,-0.006546379,3.226
3226,-0.006546379,3.227
3227,-0.006669167,3.228
3228,-0.00657618,3.229
3229,-0.006698967,3.23
3230,-0.006713867,3.231
3231,-0.006453394,3.232
3232,-0.006713867,3.233
3233,-0.006561279,3.234
3234,-0.006501674,3.235
3235,-0.004547834,3.236
3236,-0.004272461,3.237
3237,-0.003967285,3.238
3238,-0.003967285,3.239
3239,-0.003982187,3.24
3240,-0.005429989,3.241
3241,-0.006423594,3.242
3242,-0.007811787,3.243
3243,-0.009032491,3.244
3244,-0.011306407,3.245
3245,-0.011306407,3.246
3246,-0.011444092,3.247
3247,-0.011399383,3.248
3248,-0.009278055,3.249
3249,-0.007874957,3.25
3250,-0.006698964,3.251
3251,-0.006698964,3.252
3252,-0.006713867,3.253
3253,-0.006475404,3.254
3254,0.007808244,3.255
3255,0.011838693,3.256
3256,0.015303502,3.257
3257,0.019103295,3.258
3258,0.021436828,3.259
3259,0.022750501,3.26
3260,0.022795216,3.261
3261,0.024901636,3.262
3262,0.025039319,3.263
3263,0.025206813,3.264
3264,0.02532959,3.265
3265,0.025177002,3.266
3266,0.025452366,3.267
3267,0.02532959,3.268
3268,0.025590047,3.269
3269,0.02485692,3.27
3270,0.025344496,3.271
3271,0.02528487,3.272
3272,0.023178453,3.273
3273,0.022460234,3.274
3274,0.022583008,3.275
3275,0.021592945,3.276
3276,0.020294189,3.277
3277,0.020264375,3.278
3278,0.018020279,3.279
3279,0.017715103,3.28
3280,0.017015305,3.281
3281,0.015519241,3.282
3282,0.014038086,3.283
3283,0.012984879,3.284
3284,0.012925246,3.285
3285,0.010941603,3.286
3286,0.009676173,3.287
3287,0.008042432,3.288
3288,0.005630843,3.289
3289,0.005738703,3.29
3290,0.003464794,3.291
3291,0.00300703,3.292
3292,0.001053206,3.293
3293,0.00074803,3.294
3294,0.000762939,3.295
3295,0.000870797,3.296
3296,-0.000517404,3.297
3297,-0.001555699,3.298
3298,-0.002943901,3.299
3299,-0.004026927,3.3
3300,-0.006256104,3.301
3301,-0.007566272,3.302
3302,-0.008894831,3.303
3303,-0.011306415,3.304
3304,-0.011488826,3.305
3305,-0.013319881,3.306
3306,-0.01373291,3.307
3307,-0.013885498,3.308
3308,-0.01416085,3.309
3309,-0.013762734,3.31
3310,-0.013855674,3.311
3311,-0.013930235,3.312
3312,-0.013870586,3.313
3313,-0.012757733,3.314
3314,-0.011566854,3.315
3315,-0.011719442,3.316
3316,-0.011306417,3.317
3317,-0.011611593,3.318
3318,-0.011429179,3.319
3319,-0.011429178,3.32
3320,-0.011291504,3.321
3321,-0.011138916,3.322
3322,-0.010286493,3.323
3323,-0.009002686,3.324
3324,-0.008850098,3.325
3325,-0.008909755,3.326
3326,-0.009002686,3.327
3327,-0.008987771,3.328
3328,-0.008987771,3.329
3329,-0.008712425,3.33
3330,-0.009002686,3.331
3331,-0.00898777,3.332
3332,-0.009155273,3.333
3333,-0.009002686,3.334
3334,-0.009155273,3.335
3335,-0.007859992,3.336
3336,-0.006698951,3.337
3337,-0.006698951,3.338
3338,-0.006546363,3.339
3339,-0.006684035,3.34
3340,-0.006285936,3.341
3341,-0.006561279,3.342
3342,-0.006546363,3.343
3343,-0.006408691,3.344
3344,-0.006561279,3.345
3345,-0.00669895,3.346
3346,-0.006851538,3.347
3347,-0.00669895,3.348
3348,-0.006546362,3.349
3349,-0.006438527,3.35
3350,-0.006591115,3.351
3351,-0.006546361,3.352
3352,-0.006546361,3.353
3353,-0.005418573,3.354
3354,-0.004104955,3.355
3355,-0.003844534,3.356
3356,-0.004242623,3.357
3357,-0.003844535,3.358
3358,-0.004119873,3.359
3359,-0.003844536,3.36
3360,-0.003267418,3.361
3361,-0.001678467,3.362
3362,-0.001540798,3.363
3363,-0.003799778,3.364
3364,-0.004104953,3.365
3365,-0.003982205,3.366
3366,-0.006300864,3.367
3367,-0.007841664,3.368
3368,-0.01028307,3.369
3369,-0.012646492,3.37
3370,-0.017544227,3.371
3371,-0.02222969,3.372
3372,-0.028117557,3.373
3373,-0.035746954,3.374
3374,-0.046487793,3.375
3375,-0.058356435,3.376
3376,-0.074240501,3.377
3377,-0.091237447,3.378
3378,-0.10828253,3.379
3379,-0.125677553,3.38
3380,-0.141639597,3.381
3381,-0.154702469,3.382
3382,-0.164988914,3.383
3383,-0.17359689,3.384
3384,-0.175446229,3.385
3385,-0.175554048,3.386
3386,-0.170581696,3.387
3387,-0.162360228,3.388
3388,-0.150261012,3.389
3389,-0.134760091,3.39
3390,-0.114223768,3.391
3391,-0.090925937,3.392
3392,-0.064408835,3.393
3393,-0.03526454,3.394
3394,-0.002383516,3.395
3395,0.032101355,3.396
3396,0.070442354,3.397
3397,0.114127274,3.398
3398,0.159397773,3.399
3399,0.207935659,3.4
3400,0.256916383,3.401
3401,0.305729594,3.402
3402,0.354572656,3.403
3403,0.403538454,3.404
3404,0.450077772,3.405
3405,0.495306832,3.406
3406,0.538139262,3.407
3407,0.581169057,3.408
3408,0.622643121,3.409
3409,0.664727536,3.41
3410,0.705971055,3.411
3411,0.746209488,3.412
3412,0.785409659,3.413
3413,0.823054096,3.414
3414,0.859920666,3.415
3415,0.893218005,3.416
3416,0.922883086,3.417
3417,0.947285541,3.418
3418,0.962900916,3.419
3419,0.966844969,3.42
3420,0.956765856,3.421
3421,0.935395234,3.422
3422,0.899755985,3.423
3423,0.856472409,3.424
3424,0.805221098,3.425
3425,0.748048713,3.426
3426,0.686953828,3.427
3427,0.623782426,3.428
3428,0.559207876,3.429
3429,0.49547091,3.43
3430,0.434145493,3.431
3431,0.374465391,3.432
3432,0.317929919,3.433
3433,0.263883933,3.434
3434,0.211483266,3.435
3435,0.160105925,3.436
3436,0.110727158,3.437
3437,0.065300747,3.438
3438,0.021630739,3.439
3439,-0.021127024,3.44
3440,-0.059322078,3.441
3441,-0.094908206,3.442
3442,-0.126784151,3.443
3443,-0.155473958,3.444
3444,-0.180010751,3.445
3445,-0.201130884,3.446
3446,-0.219627158,3.447
3447,-0.234275599,3.448
3448,-0.24688067,3.449
3449,-0.256709293,3.45
3450,-0.263988717,3.451
3451,-0.269072181,3.452
3452,-0.271986284,3.453
3453,-0.273087526,3.454
3454,-0.271074018,3.455
3455,-0.268249512,3.456
3456,-0.264773113,3.457
3457,-0.259920166,3.458
3458,-0.256165202,3.459
3459,-0.2526888,3.46
3460,-0.24794364,3.461
3461,-0.242923172,3.462
3462,-0.238770181,3.463
3463,-0.235491165,3.464
3464,-0.231736203,3.465
3465,-0.229172077,3.466
3466,-0.22577034,3.467
3467,-0.223038692,3.468
3468,-0.220582351,3.469
3469,-0.218140944,3.47
3470,-0.21695011,3.471
3471,-0.21481388,3.472
3472,-0.214493768,3.473
3473,-0.21249519,3.474
3474,-0.210846594,3.475
3475,-0.209610954,3.476
3476,-0.207366943,3.477
3477,-0.206209212,3.478
3478,-0.204880728,3.479
3479,-0.202439322,3.48
3480,-0.20230167,3.481
3481,-0.200027788,3.482
3482,-0.198762274,3.483
3483,-0.197433794,3.484
3484,-0.196138405,3.485
3485,-0.195130038,3.486
3486,-0.193466508,3.487
3487,-0.19255098,3.488
3488,-0.190369937,3.489
3489,-0.188996645,3.49
3490,-0.186633137,3.491
3491,-0.183656068,3.492
3492,-0.181367249,3.493
3493,-0.178955719,3.494
3494,-0.176637023,3.495
3495,-0.17527867,3.496
3496,-0.173142439,3.497
3497,-0.170563384,3.498
3498,-0.168382336,3.499
3499,-0.166841517,3.5
3500,-0.164444928,3.501
3501,-0.163499521,3.502
3502,-0.161087993,3.503
3503,-0.159379647,3.504
3504,-0.158066115,3.505
3505,-0.156052592,3.506
3506,-0.153641066,3.507
3507,-0.152237894,3.508
3508,-0.150924364,3.509
3509,-0.149368604,3.51
3510,-0.148560842,3.511
3511,-0.146454493,3.512
3512,-0.144638379,3.513
3513,-0.143692969,3.514
3514,-0.142319678,3.515
3515,-0.141266504,3.516
3516,-0.138825097,3.517
3517,-0.13714663,3.518
3518,-0.135940869,3.519
3519,-0.133957226,3.52
3520,-0.13238652,3.521
3521,-0.131072998,3.522
3522,-0.12895171,3.523
3523,-0.127808882,3.524
3524,-0.125214887,3.525
3525,-0.123841595,3.526
3526,-0.121843009,3.527
3527,-0.119278901,3.528
3528,-0.11714267,3.529
3529,-0.115159027,3.53
3530,-0.114090911,3.531
3531,-0.112137156,3.532
3532,-0.110536557,3.533
3533,-0.10925293,3.534
3534,-0.107927617,3.535
3535,-0.106949167,3.536
3536,-0.105393399,3.537
3537,-0.104079886,3.538
3538,-0.104645403,3.539
3539,-0.103227277,3.54
3540,-0.101928711,3.541
3541,-0.102051408,3.542
3542,-0.09976259,3.543
3543,-0.099610001,3.544
3544,-0.097228378,3.545
3545,-0.096878365,3.546
3546,-0.094879776,3.547
3547,-0.09373693,3.548
3548,-0.092300728,3.549
3549,-0.090730009,3.55
3550,-0.089598985,3.551
3551,-0.088333442,3.552
3552,-0.08686735,3.553
3553,-0.087250379,3.554
3554,-0.085404377,3.555
3555,-0.084916719,3.556
3556,-0.082550049,3.557
3557,-0.08220003,3.558
3558,-0.080231335,3.559
3559,-0.079498291,3.56
3560,-0.077789928,3.561
3561,-0.077377009,3.562
3562,-0.076264049,3.563
3563,-0.075073242,3.564
3564,-0.073655105,3.565
3565,-0.072449351,3.566
3566,-0.070343018,3.567
3567,-0.070328069,3.568
3568,-0.069047569,3.569
3569,-0.067734074,3.57
3570,-0.066591212,3.571
3571,-0.065430306,3.572
3572,-0.065538044,3.573
3573,-0.063416763,3.574
3574,-0.062851261,3.575
3575,-0.062836311,3.576
3576,-0.06071503,3.577
3577,-0.060287167,3.578
3578,-0.060119629,3.579
3579,-0.058381359,3.58
3580,-0.057663272,3.581
3581,-0.055374453,3.582
3582,-0.055419307,3.583
3583,-0.054369218,3.584
3584,-0.052810362,3.585
3585,-0.052520138,3.586
3586,-0.050934452,3.587
3587,-0.050521544,3.588
3588,-0.04939362,3.589
3589,-0.048217773,3.59
3590,-0.047074897,3.591
3591,-0.04573151,3.592
3592,-0.043532407,3.593
3593,-0.042192082,3.594
3594,-0.04092346,3.595
3595,-0.039720768,3.596
3596,-0.038437195,3.597
3597,-0.038314514,3.598
3598,-0.038422242,3.599
3599,-0.036256104,3.6
3600,-0.035858154,3.601
3601,-0.036025696,3.602
3602,-0.035828246,3.603
3603,-0.034730222,3.604
3604,-0.033569336,3.605
3605,-0.033554381,3.606
3606,-0.033554381,3.607
3607,-0.033416748,3.608
3608,-0.033677059,3.609
3609,-0.031555783,3.61
3610,-0.031112975,3.611
3611,-0.031112974,3.612
3612,-0.03012267,3.613
3613,-0.028824156,3.614
3614,-0.028563847,3.615
3615,-0.028396304,3.616
3616,-0.026077573,3.617
3617,-0.026245117,3.618
3618,-0.026062617,3.619
3619,-0.024123843,3.62
3620,-0.023498535,3.621
3621,-0.02162261,3.622
3622,-0.02119476,3.623
3623,-0.019028615,3.624
3624,-0.017610452,3.625
3625,-0.016572251,3.626
3626,-0.015169044,3.627
3627,-0.013915413,3.628
3628,-0.013688037,3.629
3629,-0.011886898,3.63
3630,-0.01132142,3.631
3631,-0.011566763,3.632
3632,-0.011566763,3.633
3633,-0.009292903,3.634
3634,-0.009155273,3.635
3635,-0.009125356,3.636
3636,-0.008559881,3.637
3637,-0.006698908,3.638
3638,-0.006531361,3.639
3639,-0.005526077,3.64
3640,-0.004089954,3.641
3641,-0.003129548,3.642
3642,-0.001618628,3.643
3643,0.000487684,3.644
3644,0.000930487,3.645
3645,0.001905856,3.646
3646,0.00346464,3.647
3647,0.003356934,3.648
3648,0.005493164,3.649
3649,0.005783379,3.65
3650,0.005478203,3.651
3651,0.005783379,3.652
3652,0.005660713,3.653
3653,0.00793457,3.654
3654,0.007949532,3.655
3655,0.008209823,3.656
3656,0.009245044,3.657
3657,0.010696114,3.658
3658,0.01193178,3.659
3659,0.012817383,3.66
3660,0.014403111,3.661
3661,0.015549002,3.662
3662,0.016509417,3.663
3663,0.017990408,3.664
3664,0.017897672,3.665
3665,0.020141602,3.666
3666,0.021299496,3.667
3667,0.02291811,3.668
3668,0.025054341,3.669
3669,0.026304972,3.67
3670,0.028898966,3.671
3671,0.030227366,3.672
3672,0.032378561,3.673
3673,0.034942627,3.674
3674,0.036238152,3.675
3675,0.03756655,3.676
3676,0.039427534,3.677
3677,0.040815791,3.678
3678,0.042159153,3.679
3679,0.044142796,3.68
3680,0.045836228,3.681
3681,0.046904344,3.682
3682,0.04931582,3.683
3683,0.051574707,3.684
3684,0.052870239,3.685
3685,0.054228565,3.686
3686,0.05645752,3.687
3687,0.057782986,3.688
3688,0.058928859,3.689
3689,0.061522853,3.69
3690,0.061690408,3.691
3691,0.063644117,3.692
3692,0.064239502,3.693
3693,0.066238112,3.694
3694,0.066513353,3.695
3695,0.066788594,3.696
3696,0.066420635,3.697
3697,0.067671274,3.698
3698,0.069107347,3.699
3699,0.069137282,3.7
3700,0.071135893,3.701
3701,0.072539121,3.702
3702,0.073744856,3.703
3703,0.074980528,3.704
3704,0.076308914,3.705
3705,0.077314254,3.706
3706,0.078765289,3.707
3707,0.078750321,3.708
3708,0.078735352,3.709
3709,0.078490053,3.71
3710,0.081131849,3.711
3711,0.081451994,3.712
3712,0.081329346,3.713
3713,0.081176758,3.714
3714,0.081131847,3.715
3715,0.078857999,3.716
3716,0.078872969,3.717
3717,0.077730001,3.718
3718,0.076539238,3.719
3719,0.074112802,3.72
3720,0.071671396,3.721
3721,0.069122314,3.722
3722,0.06770411,3.723
3723,0.065110115,3.724
3724,0.062668708,3.725
3725,0.061860853,3.726
3726,0.059159186,3.727
3727,0.056900311,3.728
3728,0.055344488,3.729
3729,0.05316334,3.73
3730,0.050461675,3.731
3731,0.048403169,3.732
3732,0.044938564,3.733
3733,0.041246509,3.734
3734,0.039095304,3.735
3735,0.036378667,3.736
3736,0.033036706,3.737
3737,0.029207035,3.738
3738,0.026460452,3.739
3739,0.02388143,3.74
3740,0.020692058,3.741
3741,0.017,3.742
3742,0.014543619,3.743
3743,0.010818766,3.744
3744,0.00697412,3.745
3745,0.004320227,3.746
3746,0.001023191,3.747
3747,-0.002791507,3.748
3748,-0.005583014,3.749
3749,-0.00875741,3.75
3750,-0.01133643,3.751
3751,-0.014875902,3.752
3752,-0.017652436,3.753
3753,-0.021072105,3.754
3754,-0.023543463,3.755
3755,-0.026960301,3.756
3756,-0.030104743,3.757
3757,-0.03225595,3.758
3758,-0.034772239,3.759
3759,-0.037901703,3.76
3760,-0.040495698,3.761
3761,-0.043089693,3.762
3762,-0.045348558,3.763
3763,-0.046934345,3.764
3764,-0.049606042,3.765
3765,-0.051787205,3.766
3766,-0.054366222,3.767
3767,-0.055464293,3.768
3768,-0.057875744,3.769
3769,-0.060119629,3.77
3770,-0.061828052,3.771
3771,-0.062773536,3.772
3772,-0.065155029,3.773
3773,-0.065367531,3.774
3774,-0.06729126,3.775
3775,-0.067626393,3.776
3776,-0.068862076,3.777
3777,-0.07029808,3.778
3778,-0.07019043,3.779
3779,-0.07017545,3.78
3780,-0.070160471,3.781
3781,-0.070313058,3.782
3782,-0.070037842,3.783
3783,-0.07022039,3.784
3784,-0.071180858,3.785
3785,-0.072601875,3.786
3786,-0.070175449,3.787
3787,-0.070328037,3.788
3788,-0.07019043,3.789
3789,-0.069915216,3.79
3790,-0.070160468,3.791
3791,-0.070313055,3.792
3792,-0.070343018,3.793
3793,-0.068757213,3.794
3794,-0.067611417,3.795
3795,-0.067901611,3.796
3796,-0.066620981,3.797
3797,-0.065277653,3.798
3798,-0.065047388,3.799
3799,-0.065307617,3.8
3800,-0.063919344,3.801
3801,-0.062728606,3.802
3802,-0.062758571,3.803
3803,-0.06269864,3.804
3804,-0.062821262,3.805
3805,-0.060302183,3.806
3806,-0.060424805,3.807
3807,-0.059021547,3.808
3808,-0.058091036,3.809
3809,-0.057678223,3.81
3810,-0.057830811,3.811
3811,-0.055832184,3.812
3812,-0.055527008,3.813
3813,-0.053223205,3.814
3814,-0.052933014,3.815
3815,-0.051864898,3.816
3816,-0.05065918,3.817
3817,-0.050521577,3.818
3818,-0.049501154,3.819
3819,-0.048340391,3.82
3820,-0.048217773,3.821
3821,-0.0480502,3.822
3822,-0.046661923,3.823
3823,-0.045578822,3.824
3824,-0.045898983,3.825
3825,-0.045608793,3.826
3826,-0.045898983,3.827
3827,-0.045791354,3.828
3828,-0.044373103,3.829
3829,-0.043747765,3.83
3830,-0.043442589,3.831
3831,-0.040908542,3.832
3832,-0.040848594,3.833
3833,-0.038604736,3.834
3834,-0.038422174,3.835
3835,-0.03602573,3.836
3836,-0.036010742,3.837
3837,-0.034700113,3.838
3838,-0.03340176,3.839
3839,-0.033234184,3.84
3840,-0.031388141,3.841
3841,-0.031112941,3.842
3842,-0.029969884,3.843
3843,-0.028548924,3.844
3844,-0.028548924,3.845
3845,-0.028518947,3.846
3846,-0.026122507,3.847
3847,-0.026092529,3.848
3848,-0.026092529,3.849
3849,-0.026092529,3.85
3850,-0.026200148,3.851
3851,-0.025939941,3.852
3852,-0.026215137,3.853
3853,-0.026382715,3.854
3854,-0.026092529,3.855
3855,-0.02610752,3.856
3856,-0.025969922,3.857
3857,-0.026230127,3.858
3858,-0.025072067,3.859
3859,-0.023926317,3.86
3860,-0.023941308,3.861
3861,-0.02378872,3.862
3862,-0.022385446,3.863
3863,-0.021454927,3.864
3864,-0.021057129,3.865
3865,-0.021484909,3.866
3866,-0.021377297,3.867
3867,-0.021194725,3.868
3868,-0.021224709,3.869
3869,-0.020811923,3.87
3870,-0.021484908,3.871
3871,-0.021332319,3.872
3872,-0.019944035,3.873
3873,-0.019013515,3.874
3874,-0.018630716,3.875
3875,-0.018920898,3.876
3876,-0.018935892,3.877
3877,-0.021087116,3.878
3878,-0.021209717,3.879
3879,-0.021362305,3.88
3880,-0.021209717,3.881
3881,-0.021072123,3.882
3882,-0.021332316,3.883
3883,-0.021209717,3.884
3884,-0.021317321,3.885
3885,-0.021209717,3.886
3886,-0.018875914,3.887
3887,-0.018753316,3.888
3888,-0.020048994,3.889
3889,-0.021087119,3.89
3890,-0.021347309,3.891
3891,-0.021239708,3.892
3892,-0.02145491,3.893
3893,-0.019196083,3.894
3894,-0.01895089,3.895
3895,-0.018645715,3.896
3896,-0.018645715,3.897
3897,-0.018905902,3.898
3898,-0.018920898,3.899
3899,-0.018783307,3.9
3900,-0.018935895,3.901
3901,-0.018783307,3.902
3902,-0.018905901,3.903
3903,-0.019043492,3.904
3904,-0.018920898,3.905
3905,-0.018905901,3.906
3906,-0.017320031,3.907
3907,-0.016617082,3.908
3908,-0.016296908,3.909
3909,-0.016479492,3.91
3910,-0.016219311,3.911
3911,-0.016464494,3.912
3912,-0.016189315,3.913
3913,-0.015183796,3.914
3914,-0.013595321,3.915
3915,-0.013747909,3.916
3916,-0.013655318,3.917
3917,-0.013915497,3.918
3918,-0.014160675,3.919
3919,-0.013885498,3.92
3920,-0.015623964,3.921
3921,-0.016341904,3.922
3922,-0.016189316,3.923
3923,-0.016371905,3.924
3924,-0.016587079,3.925
3925,-0.016341905,3.926
3926,-0.016371906,3.927
3927,-0.016326904,3.928
3928,-0.016464491,3.929
3929,-0.016311903,3.93
3930,-0.016189318,3.931
3931,-0.016464491,3.932
3932,-0.016494494,3.933
3933,-0.016159315,3.934
3934,-0.014450845,3.935
3935,-0.013762914,3.936
3936,-0.014023084,3.937
3937,-0.014038086,3.938
3938,-0.013855494,3.939
3939,-0.013885498,3.94
3940,-0.013885498,3.941
3941,-0.013900501,3.942
3942,-0.014038086,3.943
3943,-0.014175671,3.944
3944,-0.014205677,3.945
3945,-0.013900501,3.946
3946,-0.014023083,3.947
3947,-0.013885498,3.948
3948,-0.013885498,3.949
3949,-0.013870494,3.95
3950,-0.01361033,3.951
3951,-0.01385549,3.952
3952,-0.013595327,3.953
3953,-0.013900502,3.954
3954,-0.014038086,3.955
3955,-0.013900503,3.956
3956,-0.013870493,3.957
3957,-0.01376292,3.958
3958,-0.014008076,3.959
3959,-0.013870493,3.96
3960,-0.013978064,3.961
3961,-0.011719256,3.962
3962,-0.011444092,3.963
3963,-0.011581674,3.964
3964,-0.011384068,3.965
3965,-0.009017692,3.966
3966,-0.009002686,3.967
3967,-0.009002686,3.968
3968,-0.008987679,3.969
3969,-0.006561279,3.97
3970,-0.006713867,3.971
3971,-0.006286117,3.972
3972,-0.006271111,3.973
3973,-0.006438706,3.974
3974,-0.006683852,3.975
3975,-0.006713867,3.976
3976,-0.006468722,3.977
3977,-0.008712518,3.978
3978,-0.009002686,3.979
3979,-0.008987677,3.98
3980,-0.008880114,3.981
3981,-0.009002686,3.982
3982,-0.008835089,3.983
3983,-0.006989026,3.984
3984,-0.00680642,3.985
3985,-0.0064237,3.986
3986,-0.006561279,3.987
3987,-0.006423701,3.988
3988,-0.00645372,3.989
3989,-0.006576289,3.99
3990,-0.005433125,3.991
3991,-0.004257451,3.992
3992,-0.003967285,3.993
3993,-0.005293059,3.994
3994,-0.006698857,3.995
3995,-0.006438712,3.996
3996,-0.006423702,3.997
3997,-0.006713867,3.998
3998,-0.006698856,3.999
3999,-0.006423702,4.0
4000,-0.006453725,4.001
4001,-0.006561279,4.002
4002,-0.006683844,4.003
4003,-0.006561279,4.004
4004,-0.006561279,4.005
4005,-0.006453727,4.006
4006,-0.006408691,4.007
4007,-0.006438716,4.008
4008,-0.006546267,4.009
4009,-0.006974006,4.01
4010,-0.006698855,4.011
4011,-0.006698854,4.012
4012,-0.006438717,4.013
4013,-0.006438717,4.014
4014,-0.006561279,4.015
4015,-0.006758907,4.016
4016,-0.00869751,4.017
4017,-0.009292848,4.018
4018,-0.007751955,4.019
4019,-0.006851441,4.02
4020,-0.006561279,4.021
4021,-0.006408691,4.022
4022,-0.006591308,4.023
4023,-0.006546265,4.024
4024,-0.005418091,4.025
4025,-0.004104858,4.026
4026,-0.003967285,4.027
4027,-0.004257446,4.028
4028,-0.004089843,4.029
4029,-0.001968627,4.03
4030,-0.001816039,4.031
4031,-0.001403322,4.032
4032,-0.001540895,4.033
4033,-0.001525879,4.034
4034,-0.001678467,4.035
4035,-0.001555911,4.036
4036,-0.001938594,4.037
4037,-0.000382681,4.038
4038,0.000885494,4.039
4039,0.000747923,4.04
4040,0.000777956,4.041
4041,0.000930544,4.042
4042,0.000777957,4.043
4043,0.000915527,4.044
4044,0.000885492,4.045
4045,0.000472781,4.046
4046,0.000885492,4.047
4047,0.001235721,4.048
4048,0.000900509,4.049
4049,0.000792976,4.05
4050,0.000762939,4.051
4051,0.000915527,4.052
4052,0.00062537,4.053
4053,0.000595333,4.054
4054,0.00050282,4.055
4055,0.000777958,4.056
4056,0.000595332,4.057
4057,0.00204372,4.058
4058,0.002914189,4.059
4059,0.003174306,4.06
4060,0.003219365,4.061
4061,0.003234386,4.062
4062,0.005355596,4.063
4063,0.005690813,4.064
4064,0.005630732,4.065
4065,0.005645752,4.066
4066,0.00579834,4.067
4067,0.005783319,4.068
4068,0.005630731,4.069
4069,0.005370618,4.07
4070,0.005493164,4.071
4071,0.005905864,4.072
4072,0.005905863,4.073
4073,0.005523207,4.074
4074,0.005508186,4.075
4075,0.00793457,4.076
4076,0.008072136,4.077
4077,0.00793457,4.078
4078,0.008224724,4.079
4079,0.008087158,4.08
4080,0.008407357,4.081
4081,0.008239746,4.082
4082,0.007949593,4.083
4083,0.008224723,4.084
4084,0.008377311,4.085
4085,0.007949594,4.086
4086,0.008347264,4.087
4087,0.008224722,4.088
4088,0.00793457,4.089
4089,0.008224722,4.09
4090,0.008347262,4.091
4091,0.008087158,4.092
4092,0.007949595,4.093
4093,0.008209697,4.094
4094,0.00796462,4.095
4095,0.007919546,4.096
4096,0.008224721,4.097
4097,0.008087158,4.098
4098,0.00708148,4.099
4099,0.006941582,4.1
4100,0.008392334,4.101
4101,0.008239746,4.102
4102,0.008087158,4.103
4103,0.008087158,4.104
4104,0.009215378,4.105
4105,0.010375977,4.106
4106,0.010666126,4.107
4107,0.010666126,4.108
4108,0.010818714,4.109
4109,0.010513538,4.11
4110,0.010666125,4.111
4111,0.010681152,4.112
4112,0.010803686,4.113
4113,0.010513537,4.114
4114,0.010666125,4.115
4115,0.010391004,4.116
4116,0.011564314,4.117
4117,0.013092503,4.118
4118,0.013137587,4.119
4119,0.012847439,4.12
4120,0.011841742,4.121
4121,0.010406034,4.122
4122,0.010696181,4.123
4123,0.010666124,4.124
4124,0.010253447,4.125
4125,0.009292832,4.126
4126,0.0079496,4.127
4127,0.007919541,4.128
4128,0.008224717,4.129
4129,0.008102188,4.13
4130,0.008269806,4.131
4131,0.010238419,4.132
4132,0.010651092,4.133
4133,0.010956268,4.134
4134,0.010696183,4.135
4135,0.010863801,4.136
4136,0.012847444,4.137
4137,0.012832414,4.138
4138,0.012969971,4.139
4139,0.012969971,4.14
4140,0.012969971,4.141
4141,0.012985002,4.142
4142,0.013230052,4.143
4143,0.012985002,4.144
4144,0.012985003,4.145
4145,0.012877511,4.146
4146,0.01306243,4.147
4147,0.011108852,4.148
4148,0.01066612,4.149
4149,0.010528564,4.15
4150,0.01066612,4.151
4151,0.010528564,4.152
4152,0.010513531,4.153
4153,0.010636053,4.154
4154,0.010528564,4.155
4155,0.010528564,4.156
4156,0.0083773,4.157
4157,0.008072125,4.158
4158,0.008347233,4.159
4159,0.007994706,4.16
4160,0.008239746,4.161
4161,0.006836387,4.162
4162,0.00579834,4.163
4163,0.005645752,4.164
4164,0.005690856,4.165
4165,0.005783305,4.166
4166,0.005508199,4.167
4167,0.005508199,4.168
4168,0.005340576,4.169
4169,0.005630717,4.17
4170,0.005385683,4.171
4171,0.00579834,4.172
4172,0.006651494,4.173
4173,0.007949606,4.174
4174,0.008087158,4.175
4175,0.00822471,4.176
4176,0.008239746,4.177
4177,0.008087158,4.178
4178,0.008102195,4.179
4179,0.007827093,4.18
4180,0.007949607,4.181
4181,0.007842131,4.182
4182,0.008087158,4.183
4183,0.008087158,4.184
4184,0.007964645,4.185
4185,0.006851417,4.186
4186,0.005905814,4.187
4187,0.005645752,4.188
4188,0.005905813,4.189
4189,0.005493164,4.19
4190,0.005768263,4.191
4191,0.006666549,4.192
4192,0.007964648,4.193
4193,0.007797021,4.194
4194,0.007979687,4.195
4195,0.008254785,4.196
4196,0.008087158,4.197
4197,0.007964649,4.198
4198,0.008347215,4.199
4199,0.008087158,4.2
4200,0.00794961,4.201
4201,0.008224706,4.202
4202,0.007827103,4.203
4203,0.008239746,4.204
4204,0.008087158,4.205
4205,0.008072118,4.206
4206,0.008239746,4.207
4207,0.008224705,4.208
4208,0.008209664,4.209
4209,0.008132282,4.21
4210,0.008087158,4.211
4211,0.008239746,4.212
4212,0.0081022,4.213
4213,0.008117242,4.214
4214,0.008072116,4.215
4215,0.00836225,4.216
4216,0.008239746,4.217
4217,0.0081022,4.218
4218,0.007949613,4.219
4219,0.008209661,4.22
4220,0.00793457,4.221
4221,0.007812068,4.222
4222,0.006836369,4.223
4223,0.005783297,4.224
4224,0.005660795,4.225
4225,0.005493164,4.226
4226,0.005523251,4.227
4227,0.005783296,4.228
4228,0.005508208,4.229
4229,0.006073428,4.23
4230,0.004364872,4.231
4231,0.00450027,4.232
4232,0.00579834,4.233
4233,0.005783295,4.234
4234,0.005890749,4.235
4235,0.005645752,4.236
4236,0.005783295,4.237
4237,0.005508209,4.238
4238,0.005523255,4.239
4239,0.0055383,4.24
4240,0.005645752,4.241
4241,0.005935882,4.242
4242,0.005493164,4.243
4243,0.005645752,4.244
4244,0.00579834,4.245
4245,0.005645752,4.246
4246,0.005783293,4.247
4247,0.005920835,4.248
4248,0.005645752,4.249
4249,0.005675846,4.25
4250,0.005768246,4.251
4251,0.005920833,4.252
4252,0.005753198,4.253
4253,0.003341886,4.254
4254,0.003174251,4.255
4255,0.00289917,4.256
4256,0.001923451,4.257
4257,0.000472812,4.258
4258,0.000900479,4.259
4259,0.000610352,4.26
4260,0.000915527,4.261
4261,0.000915527,4.262
4262,0.000747891,4.263
4263,0.000595303,4.264
4264,0.001891251,4.265
4265,0.003066807,4.266
4266,0.002516653,4.267
4267,0.003189296,4.268
4268,0.003174246,4.269
4269,0.003036708,4.27
4270,0.003204346,4.271
4271,0.005325526,4.272
4272,0.00578329,4.273
4273,0.005630702,4.274
4274,0.003494471,4.275
4275,0.003066808,4.276
4276,0.003234447,4.277
4277,0.003144142,4.278
4278,0.000930578,4.279
4279,0.000747888,4.28
4280,0.001022961,4.281
4281,-0.001373291,4.282
4282,-0.001648364,4.283
4283,0.000640455,4.284
4284,0.000762939,4.285
4285,0.001891263,4.286
4286,0.003479417,4.287
4287,0.005660804,4.288
4288,0.006774077,4.289
4289,0.009138159,4.29
4290,0.013122559,4.291
4291,0.016249581,4.292
4292,0.019163805,4.293
4293,0.021300036,4.294
4294,0.02493204,4.295
4295,0.0273885,4.296
4296,0.029647212,4.297
4297,0.031340733,4.298
4298,0.032761235,4.299
4299,0.032486167,4.3
4300,0.032608646,4.301
4301,0.030349936,4.302
4302,0.030349936,4.303
4303,0.028809002,4.304
4304,0.027786051,4.305
4305,0.02749593,4.306
4306,0.026627606,4.307
4307,0.025161947,4.308
4308,0.025177002,4.309
4309,0.025299479,4.31
4310,0.02532959,4.311
4311,0.025207114,4.312
4312,0.025299478,4.313
4313,0.025192058,4.314
4314,0.025192058,4.315
4315,0.025421952,4.316
4316,0.023315834,4.317
4317,0.021302078,4.318
4318,0.020554195,4.319
4319,0.0179602,4.32
4320,0.015716553,4.321
4321,0.014405506,4.322
4322,0.012924799,4.323
4323,0.010956213,4.324
4324,0.010788567,4.325
4325,0.008087158,4.326
4326,0.008224688,4.327
4327,0.008057042,4.328
4328,0.006058341,4.329
4329,0.005768223,4.33
4330,0.00566081,4.331
4331,0.005783281,4.332
4332,0.005645752,4.333
4333,0.005645752,4.334
4334,0.005813399,4.335
4335,0.004349753,4.336
4336,0.003509521,4.337
4337,0.001785876,4.338
4338,0.000885408,4.339
4339,-0.001220703,4.34
4340,-0.003096938,4.341
4341,-0.004149993,4.342
4342,-0.005538345,4.343
4343,-0.006668686,4.344
4344,-0.006546219,4.345
4345,-0.006316346,4.346
4346,-0.006423752,4.347
4347,-0.006133638,4.348
4348,-0.006438814,4.349
4349,-0.006286226,4.35
4350,-0.006668683,4.351
4351,-0.006438814,4.352
4352,-0.006668682,4.353
4353,-0.004302585,4.354
4354,-0.003967285,4.355
4355,-0.004425049,4.356
4356,-0.004134935,4.357
4357,-0.004212211,4.358
4358,-0.001815992,4.359
4359,-0.001556004,4.36
4360,-0.001800929,4.361
4361,-0.001403417,4.362
4362,-0.001663404,4.363
4363,-0.001540942,4.364
4364,-0.001525879,4.365
4365,-0.001633276,4.366
4366,0.000350367,4.367
4367,0.000747876,4.368
4368,0.000900463,4.369
4369,0.000900463,4.37
4370,0.000793068,4.371
4371,0.000762939,4.372
4372,0.000778004,4.373
4373,0.000640481,4.374
4374,0.001998707,4.375
4375,0.003066823,4.376
4376,0.003479391,4.377
4377,0.003326803,4.378
4378,0.003204346,4.379
4379,0.003219411,4.38
4380,0.003204346,4.381
4381,0.003066824,4.382
4382,0.003204346,4.383
4383,0.00318928,4.384
4384,0.003036692,4.385
4385,0.003204346,4.386
4386,0.003326801,4.387
4387,0.00289917,4.388
4388,0.003219413,4.389
4389,0.004317662,4.39
4390,0.005645752,4.391
4391,0.005615617,4.392
4392,0.005783272,4.393
4393,0.005630684,4.394
4394,0.005478096,4.395
4395,0.005768204,4.396
4396,0.00579834,4.397
4397,0.005950928,4.398
4398,0.005645752,4.399
4399,0.005783271,4.4
4400,0.005660821,4.401
4401,0.005905722,4.402
4402,0.003601834,4.403
4403,0.000595283,4.404
4404,-0.001296049,4.405
4405,-0.004988297,4.406
4406,-0.00988618,4.407
4407,-0.015089239,4.408
4408,-0.021848317,4.409
4409,-0.03045352,4.41
4410,-0.041392752,4.411
4411,-0.053722234,4.412
4412,-0.069406765,4.413
4413,-0.086588919,4.414
4414,-0.103616601,4.415
4415,-0.121974246,4.416
4416,-0.138773988,4.417
4417,-0.152569064,4.418
4418,-0.164868401,4.419
4419,-0.17335304,4.42
4420,-0.178878222,4.421
4421,-0.18022137,4.422
4422,-0.179032682,4.423
4423,-0.174379685,4.424
4424,-0.165789545,4.425
4425,-0.153111542,4.426
4426,-0.137197181,4.427
4427,-0.116614748,4.428
4428,-0.091194717,4.429
4429,-0.060999242,4.43
4430,-0.026941989,4.431
4431,0.008731581,4.432
4432,0.05050867,4.433
4433,0.095627621,4.434
4434,0.145629386,4.435
4435,0.198637691,4.436
4436,0.25286855,4.437
4437,0.304350977,4.438
4438,0.356598192,4.439
4439,0.407409971,4.44
4440,0.457276074,4.441
4441,0.506241724,4.442
4442,0.553926372,4.443
4443,0.600328176,4.444
4444,0.64669983,4.445
4445,0.690767591,4.446
4446,0.733919824,4.447
4447,0.775210851,4.448
4448,0.816852279,4.449
4449,0.857333306,4.45
4450,0.896382571,4.451
4451,0.929586436,4.452
4452,0.957208507,4.453
4453,0.974392465,4.454
4454,0.98046948,4.455
4455,0.972630838,4.456
4456,0.951469991,4.457
4457,0.916866328,4.458
4458,0.872024194,4.459
4459,0.817964656,4.46
4460,0.758074803,4.461
4461,0.694873248,4.462
4462,0.63112165,4.463
4463,0.569841614,4.464
4464,0.51007238,4.465
4465,0.452714398,4.466
4466,0.396057235,4.467
4467,0.342316129,4.468
4468,0.288512904,4.469
4469,0.238158889,4.47
4470,0.1892234,4.471
4471,0.14143142,4.472
4472,0.098324432,4.473
4473,0.056835595,4.474
4474,0.019084263,4.475
4475,-0.017751539,4.476
4476,-0.050024782,4.477
4477,-0.080894574,4.478
4478,-0.10692679,4.479
4479,-0.13115811,4.48
4480,-0.151894989,4.481
4481,-0.170390075,4.482
4482,-0.185451039,4.483
4483,-0.198680948,4.484
4484,-0.207868167,4.485
4485,-0.215101903,4.486
4486,-0.218978704,4.487
4487,-0.220839921,4.488
4488,-0.220627009,4.489
4489,-0.2196964,4.49
4490,-0.218017933,4.491
4491,-0.216659723,4.492
4492,-0.214798505,4.493
4493,-0.21237218,4.494
4494,-0.210953643,4.495
4495,-0.208512236,4.496
4496,-0.207169108,4.497
4497,-0.204925537,4.498
4498,-0.204437608,4.499
4499,-0.20259147,4.5
4500,-0.202148789,4.501
4501,-0.200027642,4.502
4502,-0.199829804,4.503
4503,-0.197433647,4.504
4504,-0.197173722,4.505
4505,-0.196442701,4.506
4506,-0.194717232,4.507
4507,-0.194549561,4.508
4508,-0.192978429,4.509
4509,-0.192550834,4.51
4510,-0.191147374,4.511
4511,-0.189987008,4.512
4512,-0.190124512,4.513
4513,-0.188705966,4.514
4514,-0.18737793,4.515
4515,-0.187362845,4.516
4516,-0.185516705,4.517
4517,-0.184936523,4.518
4518,-0.183350303,4.519
4519,-0.182632619,4.52
4520,-0.180603719,4.521
4521,-0.180038625,4.522
4522,-0.17791748,4.523
4523,-0.176773934,4.524
4524,-0.175323486,4.525
4525,-0.173904936,4.526
4526,-0.172989408,4.527
4527,-0.171723444,4.528
4528,-0.170440674,4.529
4529,-0.170395413,4.53
4530,-0.168304443,4.531
4531,-0.167816505,4.532
4532,-0.166260451,4.533
4533,-0.165390186,4.534
4534,-0.163284131,4.535
4535,-0.163269043,4.536
4536,-0.162994043,4.537
4537,-0.163118161,4.538
4538,-0.154618503,4.539
4539,-0.152054684,4.54
4540,-0.149888276,4.541
4541,-0.148300341,4.542
4542,-0.146179199,4.543
4543,-0.146026611,4.544
4544,-0.146118842,4.545
4545,-0.143447707,4.546
4546,-0.142441642,4.547
4547,-0.141281297,4.548
4548,-0.13888516,4.549
4549,-0.13740624,4.55
4550,-0.136383394,4.551
4551,-0.134827334,4.552
4552,-0.133911807,4.553
4553,-0.131408355,4.554
4554,-0.131210495,4.555
4555,-0.129074265,4.556
4556,-0.127930695,4.557
4557,-0.126602676,4.558
4558,-0.124328948,4.559
4559,-0.122787978,4.56
4560,-0.12127719,4.561
4561,-0.119308639,4.562
4562,-0.119003463,4.563
4563,-0.11804266,4.564
4564,-0.116867232,4.565
4565,-0.116562056,4.566
4566,-0.114410733,4.567
4567,-0.113998247,4.568
4568,-0.113007256,4.569
4569,-0.111571934,4.57
4570,-0.110550756,4.571
4571,-0.109070156,4.572
4572,-0.107254194,4.573
4573,-0.105850716,4.574
4574,-0.104187342,4.575
4575,-0.10224898,4.576
4576,-0.100785127,4.577
4577,-0.099717011,4.578
4578,-0.097290698,4.579
4579,-0.094894574,4.58
4580,-0.093598399,4.581
4581,-0.092392789,4.582
4582,-0.09004195,4.583
4583,-0.088303104,4.584
4584,-0.087295368,4.585
4585,-0.086121588,4.586
4586,-0.084853962,4.587
4587,-0.08497636,4.588
4588,-0.084778485,4.589
4589,-0.082825033,4.59
4590,-0.082137573,4.591
4591,-0.082397461,4.592
4592,-0.080993978,4.593
4593,-0.079848756,4.594
4594,-0.079910766,4.595
4595,-0.077957316,4.596
4596,-0.076111164,4.597
4597,-0.074768066,4.598
4598,-0.073807248,4.599
4599,-0.072586545,4.6
4600,-0.070465411,4.601
4601,-0.068756749,4.602
4602,-0.06756624,4.603
4603,-0.065307617,4.604
4604,-0.065552402,4.605
4605,-0.064286404,4.606
4606,-0.062698525,4.607
4607,-0.062591232,4.608
4608,-0.062423546,4.609
4609,-0.06072998,4.61
4610,-0.060302414,4.611
4611,-0.059158805,4.612
4612,-0.057830811,4.613
4613,-0.057815711,4.614
4614,-0.057968299,4.615
4615,-0.057800612,4.616
4616,-0.055816969,4.617
4617,-0.055664381,4.618
4618,-0.054398378,4.619
4619,-0.053040186,4.62
4620,-0.050781567,4.621
4621,-0.050506592,4.622
4622,-0.0491031,4.623
4623,-0.048355261,4.624
4624,-0.048034984,4.625
4625,-0.045944056,4.626
4626,-0.045898753,4.627
4627,-0.044662949,4.628
4628,-0.042922501,4.629
4629,-0.043732319,4.63
4630,-0.041015939,4.631
4631,-0.040465994,4.632
4632,-0.039765032,4.633
4633,-0.038574532,4.634
4634,-0.038162075,4.635
4635,-0.038177177,4.636
4636,-0.038254253,4.637
4637,-0.036300815,4.638
4638,-0.035750875,4.639
4639,-0.035690464,4.64
4640,-0.033844306,4.641
4641,-0.033401645,4.642
4642,-0.031005548,4.643
4643,-0.030945135,4.644
4644,-0.028808904,4.645
4645,-0.028549039,4.646
4646,-0.028626108,4.647
4647,-0.026397705,4.648
4648,-0.026092529,4.649
4649,-0.026092529,4.65
4650,-0.026092529,4.651
4651,-0.023818816,4.652
4652,-0.023803711,4.653
4653,-0.023651123,4.654
4654,-0.02237,4.655
4655,-0.02137741,4.656
4656,-0.021011813,4.657
4657,-0.019058381,4.658
4658,-0.018508451,4.659
4659,-0.01750229,4.66
4660,-0.01634201,4.661
4661,-0.016464386,4.662
4662,-0.015305634,4.663
4663,-0.013748016,4.664
4664,-0.012756957,4.665
4665,-0.011581573,4.666
4666,-0.011428985,4.667
4667,-0.009430235,4.668
4668,-0.009079738,4.669
4669,-0.006515958,4.67
4670,-0.006531065,4.671
4671,-0.004409941,4.672
4672,-0.004394834,4.673
4673,-0.002976219,4.674
4674,-0.001525879,4.675
4675,-0.001633143,4.676
4676,0.000732723,4.677
4677,0.000640568,4.678
4678,0.002884061,4.679
4679,0.003234563,4.68
4680,0.005508273,4.681
4681,0.0055536,4.682
4682,0.0078122,4.683
4683,0.008117377,4.684
4684,0.010604111,4.685
4685,0.013107449,4.686
4686,0.014251112,4.687
4687,0.016707629,4.688
4688,0.017608047,4.689
4689,0.020034344,4.69
4690,0.022873073,4.691
4691,0.023986519,4.692
4692,0.026320669,4.693
4693,0.027786107,4.694
4694,0.029662494,4.695
4695,0.032363744,4.696
4696,0.034057322,4.697
4697,0.036376363,4.698
4698,0.037139303,4.699
4699,0.039932693,4.7
4700,0.039703075,4.701
4701,0.041946558,4.702
4702,0.041854418,4.703
4703,0.044128124,4.704
4704,0.044723364,4.705
4705,0.046737231,4.706
4706,0.046584644,4.707
4707,0.048370361,4.708
4708,0.049453589,4.709
4709,0.051604933,4.71
4710,0.052993337,4.711
4711,0.055327496,4.712
4712,0.056365385,4.713
4713,0.0590364,4.714
4714,0.060180083,4.715
4715,0.061690849,4.716
4716,0.063857308,4.717
4717,0.066513206,4.718
4718,0.067672006,4.719
4719,0.06901507,4.72
4720,0.071288774,4.721
4721,0.073699951,4.722
4722,0.073897883,4.723
4723,0.076003884,4.724
4724,0.076216933,4.725
4725,0.078307818,4.726
4726,0.078765582,4.727
4727,0.081039285,4.728
4728,0.082412577,4.729
4729,0.083510923,4.73
4730,0.08595233,4.731
4731,0.088363505,4.732
4732,0.089507201,4.733
4733,0.09114032,4.734
4734,0.093216085,4.735
4735,0.093383789,4.736
4736,0.094664959,4.737
4737,0.095840312,4.738
4738,0.095855429,4.739
4739,0.098129131,4.74
4740,0.098281719,4.741
4741,0.099425422,4.742
4742,0.10069289,4.743
4743,0.100723126,4.744
4744,0.100448186,4.745
4745,0.10069289,4.746
4746,0.100738244,4.747
4747,0.100708008,4.748
4748,0.100570538,4.749
4749,0.100708008,4.75
4750,0.100860596,4.751
4751,0.100952708,4.752
4752,0.098571777,4.753
4753,0.098083775,4.754
4754,0.096222482,4.755
4755,0.094559134,4.756
4756,0.093491018,4.757
4757,0.091079851,4.758
4758,0.089813788,4.759
4759,0.087234913,4.76
4760,0.085068442,4.761
4761,0.08233698,4.762
4762,0.079957438,4.763
4763,0.076156478,4.764
4764,0.073990006,4.765
4765,0.070557468,4.766
4766,0.067673418,4.767
4767,0.06445395,4.768
4768,0.060593888,4.769
4769,0.056747574,4.77
4770,0.053284789,4.771
4771,0.048386853,4.772
4772,0.044632642,4.773
4773,0.041245464,4.774
4774,0.036927635,4.775
4775,0.031754768,4.776
4776,0.026627268,4.777
4777,0.02182143,4.778
4778,0.017121449,4.779
4779,0.012101171,4.78
4780,0.007203234,4.781
4781,0.002305297,4.782
4782,-0.002562393,4.783
4783,-0.007490577,4.784
4784,-0.012160309,4.785
4785,-0.016890535,4.786
4786,-0.020110005,4.787
4787,-0.024809983,4.788
4788,-0.029295529,4.789
4789,-0.033019482,4.79
4790,-0.036879553,4.791
4791,-0.041640028,4.792
4792,-0.046370254,4.793
4793,-0.049391763,4.794
4794,-0.053847063,4.795
4795,-0.057723598,4.796
4796,-0.061370583,4.797
4797,-0.064177667,4.798
4798,-0.067779275,4.799
4799,-0.071181586,4.8
4800,-0.073760455,4.801
4801,-0.076109778,4.802
4802,-0.079451587,4.803
4803,-0.082152791,4.804
4804,-0.084579071,4.805
4805,-0.086745555,4.806
4806,-0.089141582,4.807
4807,-0.091125225,4.808
4808,-0.092330801,4.809
4809,-0.094329571,4.81
4810,-0.095900832,4.811
4811,-0.097183359,4.812
4812,-0.098311985,4.813
4813,-0.099349845,4.814
4814,-0.099380101,4.815
4815,-0.101791251,4.816
4816,-0.102066171,4.817
4817,-0.101791251,4.818
4818,-0.102218758,4.819
4819,-0.101638664,4.82
4820,-0.101913582,4.821
4821,-0.102218758,4.822
4822,-0.10206617,4.823
4823,-0.102081299,4.824
4824,-0.10195897,4.825
4825,-0.101913581,4.826
4826,-0.101668924,4.827
4827,-0.101958971,4.828
4828,-0.101668925,4.829
4829,-0.101395297,4.83
4830,-0.099624762,4.831
4831,-0.099502435,4.832
4832,-0.098511255,4.833
4833,-0.096923572,4.834
4834,-0.097061029,4.835
4835,-0.097183355,4.836
4836,-0.094894537,4.837
4837,-0.094589361,4.838
4838,-0.094726817,4.839
4839,-0.093598176,4.84
4840,-0.092163086,4.841
4841,-0.092270278,4.842
4842,-0.090011723,4.843
4843,-0.089569092,4.844
4844,-0.088577903,4.845
4845,-0.087372332,4.846
4846,-0.087280273,4.847
4847,-0.087432861,4.848
4848,-0.085983906,4.849
4849,-0.084854,4.85
4850,-0.084838867,4.851
4851,-0.083695086,4.852
4852,-0.08227514,4.853
4853,-0.082779557,4.854
4854,-0.080246097,4.855
4855,-0.079818601,4.856
4856,-0.078827403,4.857
4857,-0.077652102,4.858
4858,-0.076416265,4.859
4859,-0.074950923,4.86
4860,-0.07490552,4.861
4861,-0.072784424,4.862
4862,-0.072586431,4.863
4863,-0.07048047,4.864
4864,-0.070037842,4.865
4865,-0.070297612,4.866
4866,-0.068146245,4.867
4867,-0.067321531,4.868
4868,-0.067611571,4.869
4869,-0.067489255,4.87
4870,-0.067733887,4.871
4871,-0.066284916,4.872
4872,-0.065704836,4.873
4873,-0.065170166,4.874
4874,-0.065277344,4.875
4875,-0.063416016,4.876
4876,-0.062896485,4.877
4877,-0.061890136,4.878
4878,-0.060104492,4.879
4879,-0.057983398,4.88
4880,-0.056702146,4.881
4881,-0.055206541,4.882
4882,-0.053512936,4.883
4883,-0.051804193,4.884
4884,-0.05079663,4.885
4885,-0.049515374,4.886
4886,-0.048172359,4.887
4887,-0.048050047,4.888
4888,-0.047241692,4.889
4889,-0.045623779,4.89
4890,-0.046173575,4.891
4891,-0.045898677,4.892
4892,-0.045806646,4.893
4893,-0.04560864,4.894
4894,-0.043212652,4.895
4895,-0.043182373,4.896
4896,-0.043457269,4.897
4897,-0.043014645,4.898
4898,-0.042313453,4.899
4899,-0.040603519,4.9
4900,-0.04061866,4.901
4901,-0.040588379,4.902
4902,-0.040756107,4.903
4903,-0.040725826,4.904
4904,-0.038727042,4.905
4905,-0.038192396,4.906
4906,-0.038421866,4.907
4907,-0.038544171,4.908
4908,-0.038452148,4.909
4909,-0.038192397,4.91
4910,-0.038299561,4.911
4911,-0.038299561,4.912
4912,-0.038254134,4.913
4913,-0.036423079,4.914
4914,-0.036102761,4.915
4915,-0.035735851,4.916
4916,-0.035750994,4.917
4917,-0.03485177,4.918
4918,-0.033294446,4.919
4919,-0.033386462,4.92
4920,-0.033279303,4.921
4921,-0.03321873,4.922
4922,-0.031280518,4.923
4923,-0.030975342,4.924
4924,-0.030960198,4.925
4925,-0.031097642,4.926
4926,-0.030975342,4.927
4927,-0.031097641,4.928
4928,-0.028823967,4.929
4929,-0.028671379,4.93
4930,-0.028396492,4.931
4931,-0.028381348,4.932
4932,-0.027390096,4.933
4933,-0.025787354,4.934
4934,-0.025802499,4.935
4935,-0.026092529,4.936
4936,-0.025802499,4.937
4937,-0.025970233,4.938
4938,-0.026245117,4.939
4939,-0.026199679,4.94
4940,-0.026229971,4.941
4941,-0.026077383,4.942
4942,-0.026229971,4.943
4943,-0.026092529,4.944
4944,-0.025970235,4.945
4945,-0.026245117,4.946
4946,-0.026214823,4.947
4947,-0.026077382,4.948
4948,-0.026107676,4.949
4949,-0.02622997,4.95
4950,-0.025970236,4.951
4951,-0.026107677,4.952
4952,-0.024673795,4.953
4953,-0.024033147,4.954
4954,-0.023635975,4.955
4955,-0.023926002,4.956
4956,-0.023926002,4.957
4957,-0.022675002,4.958
4958,-0.021332007,4.959
4959,-0.021209717,4.96
4960,-0.021209717,4.961
4961,-0.021072278,4.962
4962,-0.02104198,4.963
4963,-0.021347155,4.964
4964,-0.021194567,4.965
4965,-0.021072279,4.966
4966,-0.021347155,4.967
4967,-0.021499743,4.968
4968,-0.021194567,4.969
4969,-0.021209717,4.97
4970,-0.020949992,4.971
4971,-0.01988296,4.972
4972,-0.018798612,4.973
4973,-0.018585421,4.974
4974,-0.018615723,4.975
4975,-0.018768311,4.976
4976,-0.018920898,4.977
4977,-0.018753159,4.978
4978,-0.019028032,4.979
4979,-0.018615723,4.98
4980,-0.018920898,4.981
4981,-0.019043182,4.982
4982,-0.018890594,4.983
4983,-0.01902803,4.984
4984,-0.018905746,4.985
4985,-0.018905746,4.986
4986,-0.018768311,4.987
4987,-0.018783463,4.988
4988,-0.018798616,4.989
4989,-0.018753157,4.99
4990,-0.018615723,4.991
4991,-0.018798617,4.992
4992,-0.018890591,4.993
4993,-0.019028025,4.994
4994,-0.018783464,4.995
4995,-0.018936052,4.996
4996,-0.019028024,4.997
4997,-0.018463135,4.998
4998,-0.016616926,4.999
4999,-0.016357213,5.0
5000,-0.016616925,5.001
5001,-0.016326904,5.002
5002,-0.016326904,5.003
5003,-0.016174316,5.004
5004,-0.016174316,5.005
5005,-0.016204627,5.006
5006,-0.01605204,5.007
5007,-0.016326904,5.008
5008,-0.016326904,5.009
5009,-0.016326904,5.01
5010,-0.01634206,5.011
5011,-0.016281436,5.012
5012,-0.014175517,5.013
5013,-0.013595479,5.014
5014,-0.013885498,5.015
5015,-0.013748067,5.016
5016,-0.013900655,5.017
5017,-0.013885498,5.018
5018,-0.013625794,5.019
5019,-0.014007771,5.02
5020,-0.013610637,5.021
5021,-0.013900656,5.022
5022,-0.01387034,5.023
5023,-0.013610638,5.024
5024,-0.01387034,5.025
5025,-0.01387034,5.026
5026,-0.01413004,5.027
5027,-0.011901855,5.028
5028,-0.01133698,5.029
5029,-0.011749268,5.03
5030,-0.011459251,5.031
5031,-0.011581521,5.032
5032,-0.011291504,5.033
5033,-0.011428932,5.034
5034,-0.011444092,5.035
5035,-0.011169235,5.036
5036,-0.010315337,5.037
5037,-0.009124954,5.038
5038,-0.009140113,5.039
5039,-0.008742991,5.04
5040,-0.007721341,5.041
5041,-0.006561279,5.042
5042,-0.006546119,5.043
5043,-0.006729028,5.044
5044,-0.006500635,5.045
5045,-0.004394727,5.046
5046,-0.004119873,5.047
5047,-0.00384502,5.048
5048,-0.003982447,5.049
5049,-0.004119873,5.05
5050,-0.003997609,5.051
5051,-0.004394725,5.052
5052,-0.004242137,5.053
5053,-0.003860184,5.054
5054,-0.006408691,5.055
5055,-0.006271266,5.056
5056,-0.006408691,5.057
5057,-0.006530954,5.058
5058,-0.005249598,5.059
5059,-0.004257298,5.06
5060,-0.003829861,5.061
5061,-0.005233479,5.062
5062,-0.006423855,5.063
5063,-0.006530952,5.064
5064,-0.006561279,5.065
5065,-0.00540218,5.066
5066,-0.003967285,5.067
5067,-0.004104709,5.068
5068,-0.004135037,5.069
5069,-0.003967285,5.07
5070,-0.004104708,5.071
5071,-0.003845027,5.072
5072,-0.003707604,5.073
5073,-0.004226966,5.074
5074,-0.001800724,5.075
5075,-0.001648136,5.076
5076,-0.0012662,5.077
5077,-0.000137422,5.078
5078,0.000778105,5.079
5079,0.000610352,5.08
5080,0.000930693,5.081
5081,0.001052949,5.082
5082,0.00047293,5.083
5083,0.001052949,5.084
5084,0.000640685,5.085
5085,0.000625518,5.086
5086,0.000778106,5.087
5087,0.000488098,5.088
5088,0.000640686,5.089
5089,0.000762939,5.09
5090,0.000610352,5.091
5091,0.00090036,5.092
5092,0.000625519,5.093
5093,-7.58e-05,5.094
5094,-0.001678467,5.095
5095,-0.001541047,5.096
5096,-0.001678467,5.097
5097,-0.003952117,5.098
5098,-0.003997623,5.099
5099,-0.004119873,5.1
5100,-0.004135042,5.101
5101,-0.003845036,5.102
5102,-0.004089534,5.103
5103,-0.003128499,5.104
5104,-0.00149554,5.105
5105,-0.001556218,5.106
5106,-0.001663297,5.107
5107,-0.000274836,5.108
5108,0.000762939,5.109
5109,0.000885187,5.11
5110,0.000930698,5.111
5111,0.000900357,5.112
5112,0.000625522,5.113
5113,0.000900356,5.114
5114,0.001022602,5.115
5115,0.000930699,5.116
5116,0.000610352,5.117
5117,0.000930699,5.118
5118,0.000930699,5.119
5119,0.0010226,5.12
5120,0.000900355,5.121
5121,0.000747767,5.122
5122,0.000885183,5.123
5123,0.000762939,5.124
5124,0.000762939,5.125
5125,0.000762939,5.126
5126,0.000671043,5.127
5127,0.0009307,5.128
5128,0.00048811,5.129
5129,0.000778113,5.13
5130,0.000915527,5.131
5131,0.000747766,5.132
5132,0.000900354,5.133
5133,0.000762939,5.134
5134,0.000778113,5.135
5135,0.000915527,5.136
5136,0.000610352,5.137
5137,0.000503287,5.138
5138,0.000885178,5.139
5139,0.000747765,5.14
5140,0.000747765,5.141
5141,0.000900352,5.142
5142,0.000900352,5.143
5143,0.000870002,5.144
5144,0.000762939,5.145
5145,0.002196932,5.146
5146,0.003234697,5.147
5147,0.003219521,5.148
5148,0.00308211,5.149
5149,0.003219522,5.15
5150,0.00318917,5.151
5151,0.00337211,5.152
5152,0.003234699,5.153
5153,0.003494345,5.154
5154,0.003204346,5.155
5155,0.003341757,5.156
5156,0.003219523,5.157
5157,0.003051758,5.158
5158,0.00309729,5.159
5159,0.003219523,5.16
5160,0.003296223,5.161
5161,0.003616576,5.162
5162,0.003219524,5.163
5163,0.002929526,5.164
5164,0.003219524,5.165
5165,0.003326577,5.166
5166,0.003356934,5.167
5167,0.003219524,5.168
5168,0.004500943,5.169
5169,0.005508343,5.17
5170,0.005660931,5.171
5171,0.005493164,5.172
